EC-Lab ASCII FILE
Nb header lines : 65                          

Potentio Electrochemical Impedance Spectroscopy

Run on channel : 1 (SN 6813)
User : 
CE vs. WE compliance from -10 V to 10 V
Electrode connection : standard
Potential control : Ewe
Ewe ctrl range : min = -1.00 V, max = 1.00 V
Safety Limits :
	Do not start on E overload
Acquisition started on : 02/16/2024 15:04:13.095
Technique started on : 02/16/2024 15:04:15.167
Loaded Setting File :  NONE
Saved on :
	File : 06 2EL413 RVC EtOH TBA-BF4_(under Ar) solidstateref+faradaiccage EIS stir bar is removed.mpr
	Directory : C:\Users\VSP\Documents\EC-Lab\Data\Louis\2024 02 16\
	Host : 10.10.11.222
Device : VSP (SN 0301)
Address : USB
EC-Lab for windows v11.50 (software)
Internet server v11.50 (firmware)
Command interpretor v11.50 (firmware)
Electrode material : 
Initial state : 
Electrolyte : 
Comments : 
Current amplifier : Low Current
Electrode surface area : 0.001 cm²
Characteristic mass : 0.001 g
Equivalent Weight : 0.000 g/eq.
Density : 0.000 g/cm3
Volume (V) : 0.001 cm³
Cycle Definition : Charge/Discharge alternance
Mode                Single sine         
E (V)               0.0000              
vs.                 Eoc                 
tE (h:m:s)          0:00:0.0000         
record              0                   
dI                  0.000               
unit dI             mA                  
dt (s)              0.000               
fi                  1.000               
unit fi             MHz                 
ff                  0.100               
unit ff             Hz                  
Nd                  50                  
Points              from fi to ff       
spacing             Logarithmic         
Va (mV)             10.0                
pw                  0.10                
Na                  3                   
corr                0                   
E range min (V)     -1.000              
E range max (V)     1.000               
I Range             Auto                
Bandwidth           4                   
nc cycles           0                   
goto Ns'            0                   
nr cycles           0                   
inc. cycle          0                   

freq/Hz	Re(Z)/Ohm	-Im(Z)/Ohm	|Z|/Ohm	Phase(Z)/deg	time/s	<Ewe>/V	<I>/mA	Cs/µF	Cp/µF	cycle number	I Range	|Ewe|/V	|I|/A	Ns	(Q-Qo)/mA.h	Re(Y)/Ohm-1	Im(Y)/Ohm-1	|Y|/Ohm-1	Phase(Y)/deg	Re(C)/nF	Im(C)/nF	|C|/nF	Phase(C)/deg	Re(M)	Im(M)	|M|	Phase(M)/deg	Re(Permittivity)	Im(Permittivity)	|Permittivity|	Phase(Permittivity)/deg	Re(Resistivity)/Ohm.cm	Im(Resistivity)/Ohm.cm	|Resistivity|/Ohm.cm	Phase(Resistivity)/deg	Re(Conductivity)/mS/cm	Im(Conductivity)/mS/cm	|Conductivity|/mS/cm	Phase(Conductivity)/deg	Tan(Delta)	Loss Angle(Delta)/deg	dq/mA.h	
1.0000186E+006	-1.0126590E+002	3.5411554E+002	3.6831046E+002	-1.0595886E+002	02/16/2024 15:04:15.1667	7.6049566E-002	8.7059342E-004	4.4943520E-004	4.1545974E-004	1.000000000000000E+000	11	1.2686104E-003	3.4444049E-006	0	4.093566371042117E-007	-7.4650912E-004	2.6104590E-003	2.7151008E-003	1.0595886E+002	4.1545975E-001	-1.1880842E-001	4.3211371E-001	1.5958862E+001	0.0000000E+000	0.0000000E+000	0.0000000E+000	-1.5958862E+001	0.0000000E+000	0.0000000E+000	0.0000000E+000	1.5958862E+001	0.0000000E+000	0.0000000E+000	0.0000000E+000	-1.0595886E+002	0.0000000E+000	0.0000000E+000	0.0000000E+000	1.0595886E+002	2.8596854E-001	1.5958862E+001	4.093566371042117E-007
7.1968713E+005	1.3214034E+001	1.8190691E+002	1.8238622E+002	-8.5845230E+001	02/16/2024 15:04:15.7457	7.6529913E-002	9.5366401E-004	1.2157023E-003	1.2093210E-003	1.000000000000000E+000	11	1.6922754E-003	9.2785267E-006	0	6.477136806109532E-007	3.9723879E-004	5.4684617E-003	5.4828706E-003	8.5845230E+001	1.2093209E+000	8.7847225E-002	1.2125074E+000	-4.1547699E+000	0.0000000E+000	0.0000000E+000	0.0000000E+000	4.1547699E+000	0.0000000E+000	0.0000000E+000	0.0000000E+000	-4.1547699E+000	0.0000000E+000	0.0000000E+000	0.0000000E+000	-8.5845230E+001	0.0000000E+000	0.0000000E+000	0.0000000E+000	8.5845230E+001	7.2641738E-002	4.1547699E+000	2.383570435067416E-007
5.1794463E+005	4.1346508E+001	1.4796458E+002	1.5363284E+002	-7.4387772E+001	02/16/2024 15:04:16.3247	7.6757811E-002	1.1896215E-003	2.0767252E-003	1.9263112E-003	1.000000000000000E+000	11	2.7424463E-003	1.7850651E-005	0	9.217452211359058E-007	1.7517438E-003	6.2688757E-003	6.5090251E-003	7.4387772E+001	1.9263111E+000	5.3827894E-001	2.0001047E+000	-1.5612228E+001	0.0000000E+000	0.0000000E+000	0.0000000E+000	1.5612228E+001	0.0000000E+000	0.0000000E+000	0.0000000E+000	-1.5612228E+001	0.0000000E+000	0.0000000E+000	0.0000000E+000	-7.4387772E+001	0.0000000E+000	0.0000000E+000	0.0000000E+000	7.4387772E+001	2.7943516E-001	1.5612228E+001	2.740315405249526E-007
3.7276388E+005	8.0000427E+001	1.2155292E+002	1.4551694E+002	-5.6648964E+001	02/16/2024 15:04:16.9037	7.6703914E-002	1.3324284E-003	3.5125373E-003	2.4508946E-003	1.000000000000000E+000	11	4.4354983E-003	3.0480975E-005	0	9.728610422569343E-007	3.7780283E-003	5.7403487E-003	6.8720523E-003	5.6648964E+001	2.4508944E+000	1.6130636E+000	2.9340854E+000	-3.3351036E+001	0.0000000E+000	0.0000000E+000	0.0000000E+000	3.3351036E+001	0.0000000E+000	0.0000000E+000	0.0000000E+000	-3.3351036E+001	0.0000000E+000	0.0000000E+000	0.0000000E+000	-5.6648964E+001	0.0000000E+000	0.0000000E+000	0.0000000E+000	5.6648964E+001	6.5815306E-001	3.3351044E+001	5.111582112102844E-008
2.6826938E+005	9.2270325E+001	1.0723550E+002	1.4146825E+002	-4.9289795E+001	02/16/2024 15:04:17.4827	7.6561280E-002	1.3229084E-003	5.5323602E-003	3.1788475E-003	1.000000000000000E+000	11	6.7026615E-003	4.7379264E-005	0	1.015230663903468E-006	4.6104579E-003	5.3582210E-003	7.0687239E-003	4.9289795E+001	3.1788473E+000	2.7352252E+000	4.1936293E+000	-4.0710205E+001	0.0000000E+000	0.0000000E+000	0.0000000E+000	4.0710205E+001	0.0000000E+000	0.0000000E+000	0.0000000E+000	-4.0710205E+001	0.0000000E+000	0.0000000E+000	0.0000000E+000	-4.9289795E+001	0.0000000E+000	0.0000000E+000	0.0000000E+000	4.9289795E+001	8.6044568E-001	4.0710205E+001	4.236962164653350E-008
1.9306711E+005	1.0565838E+002	1.0492563E+002	1.4890628E+002	-4.4800636E+001	02/16/2024 15:04:17.9137	7.6495394E-002	1.2235973E-003	7.8565208E-003	3.9009233E-003	1.000000000000000E+000	11	1.0468883E-002	7.0305177E-005	0	1.105863742347638E-006	4.7651646E-003	4.7321180E-003	6.7156334E-003	4.4800636E+001	3.9009230E+000	3.9281647E+000	5.5360346E+000	-4.5199364E+001	0.0000000E+000	0.0000000E+000	0.0000000E+000	4.5199364E+001	0.0000000E+000	0.0000000E+000	0.0000000E+000	-4.5199364E+001	0.0000000E+000	0.0000000E+000	0.0000000E+000	-4.4800636E+001	0.0000000E+000	0.0000000E+000	0.0000000E+000	4.4800636E+001	1.0069835E+000	4.5199371E+001	9.063307844417069E-008
1.3894559E+005	1.2359781E+002	1.0710251E+002	1.6354622E+002	-4.0910255E+001	02/16/2024 15:04:18.4927	7.6559119E-002	9.4470469E-004	1.0694874E-002	4.5866328E-003	1.000000000000000E+000	11	1.0661047E-002	6.5186752E-005	0	1.369396441383471E-006	4.6209339E-003	4.0042265E-003	6.1144796E-003	4.0910255E+001	4.5866332E+000	5.2930393E+000	7.0038180E+000	-4.9089745E+001	0.0000000E+000	0.0000000E+000	0.0000000E+000	4.9089745E+001	0.0000000E+000	0.0000000E+000	0.0000000E+000	-4.9089745E+001	0.0000000E+000	0.0000000E+000	0.0000000E+000	-4.0910255E+001	0.0000000E+000	0.0000000E+000	0.0000000E+000	4.0910255E+001	1.1540141E+000	4.9089752E+001	2.635326990358321E-007
1.0000371E+005	1.4460190E+002	1.1165586E+002	1.8269302E+002	-3.7673901E+001	02/16/2024 15:04:19.0717	7.6580778E-002	9.1222330E-004	1.4253532E-002	5.3240433E-003	1.000000000000000E+000	11	1.0757671E-002	5.8883859E-005	0	1.832774230540963E-006	4.3324148E-003	3.3453195E-003	5.4736626E-003	3.7673901E+001	5.3240442E+000	6.8949971E+000	8.7112818E+000	-5.2326099E+001	0.0000000E+000	0.0000000E+000	0.0000000E+000	5.2326099E+001	0.0000000E+000	0.0000000E+000	0.0000000E+000	-5.2326099E+001	0.0000000E+000	0.0000000E+000	0.0000000E+000	-3.7673901E+001	0.0000000E+000	0.0000000E+000	0.0000000E+000	3.7673901E+001	1.2950677E+000	5.2326096E+001	4.633777891574923E-007
7.1964070E+004	1.7012259E+002	1.1631412E+002	2.0608414E+002	-3.4360714E+001	02/16/2024 15:04:19.6507	7.6608747E-002	1.1323134E-003	1.9013934E-002	6.0568624E-003	1.000000000000000E+000	11	1.0755380E-002	5.2189265E-005	0	2.061538761505896E-006	4.0056491E-003	2.7386928E-003	4.8523871E-003	3.4360714E+001	6.0568628E+000	8.8588495E+000	1.0731486E+001	-5.5639286E+001	0.0000000E+000	0.0000000E+000	0.0000000E+000	5.5639286E+001	0.0000000E+000	0.0000000E+000	0.0000000E+000	-5.5639286E+001	0.0000000E+000	0.0000000E+000	0.0000000E+000	-3.4360714E+001	0.0000000E+000	0.0000000E+000	0.0000000E+000	3.4360714E+001	1.4626135E+000	5.5639282E+001	2.287645309649331E-007
5.1792605E+004	2.0039270E+002	1.1788196E+002	2.3249385E+002	-3.0466373E+001	02/16/2024 15:04:20.2297	7.6635025E-002	1.3102145E-003	2.6067838E-002	6.7015733E-003	1.000000000000000E+000	11	1.0719429E-002	4.6106288E-005	0	2.541524115391541E-006	3.7073104E-003	2.1808429E-003	4.3011890E-003	3.0466373E+001	6.7015734E+000	1.1392298E+001	1.3217244E+001	-5.9533627E+001	0.0000000E+000	0.0000000E+000	0.0000000E+000	5.9533627E+001	0.0000000E+000	0.0000000E+000	0.0000000E+000	-5.9533627E+001	0.0000000E+000	0.0000000E+000	0.0000000E+000	-3.0466373E+001	0.0000000E+000	0.0000000E+000	0.0000000E+000	3.0466373E+001	1.6999438E+000	5.9533630E+001	4.799853538856447E-007
3.7271750E+004	2.3261737E+002	1.1250228E+002	2.5839429E+002	-2.5810112E+001	02/16/2024 15:04:20.8087	7.6641306E-002	1.3673368E-003	3.7955876E-002	7.1950839E-003	1.000000000000000E+000	11	1.0678339E-002	4.1325755E-005	0	2.721981774576812E-006	3.4839856E-003	1.6849830E-003	3.8700546E-003	2.5810112E+001	7.1950841E+000	1.4877046E+001	1.6525608E+001	-6.4189888E+001	0.0000000E+000	0.0000000E+000	0.0000000E+000	6.4189888E+001	0.0000000E+000	0.0000000E+000	0.0000000E+000	-6.4189888E+001	0.0000000E+000	0.0000000E+000	0.0000000E+000	-2.5810112E+001	0.0000000E+000	0.0000000E+000	0.0000000E+000	2.5810112E+001	2.0676680E+000	6.4189888E+001	1.804576591852711E-007
2.6824154E+004	2.6224698E+002	1.0032036E+002	2.8078043E+002	-2.0933929E+001	02/16/2024 15:04:21.3877	7.6632641E-002	1.0815372E-003	5.9143230E-002	7.5500449E-003	1.000000000000000E+000	11	1.0637473E-002	3.7885380E-005	0	2.757750308041245E-006	3.3264181E-003	1.2724932E-003	3.5615019E-003	2.0933929E+001	7.5500450E+000	1.9736536E+001	2.1131351E+001	-6.9066071E+001	0.0000000E+000	0.0000000E+000	0.0000000E+000	6.9066071E+001	0.0000000E+000	0.0000000E+000	0.0000000E+000	-6.9066071E+001	0.0000000E+000	0.0000000E+000	0.0000000E+000	-2.0933929E+001	0.0000000E+000	0.0000000E+000	0.0000000E+000	2.0933929E+001	2.6140952E+000	6.9066071E+001	3.576853346443307E-008
1.9308566E+004	2.8435236E+002	8.4994522E+001	2.9678329E+002	-1.6641703E+001	02/16/2024 15:04:21.9657	7.6662630E-002	8.7544788E-004	9.6979327E-002	7.9539372E-003	1.000000000000000E+000	11	1.0491676E-002	3.5351302E-005	0	3.096543771771040E-006	3.2283301E-003	9.6496608E-004	3.3694620E-003	1.6641703E+001	7.9539366E+000	2.6610193E+001	2.7773504E+001	-7.3358299E+001	0.0000000E+000	0.0000000E+000	0.0000000E+000	7.3358299E+001	0.0000000E+000	0.0000000E+000	0.0000000E+000	-7.3358299E+001	0.0000000E+000	0.0000000E+000	0.0000000E+000	-1.6641703E+001	0.0000000E+000	0.0000000E+000	0.0000000E+000	1.6641703E+001	3.3455374E+000	7.3358299E+001	3.387934637297953E-007
1.3899199E+004	2.9893033E+002	6.9095596E+001	3.0681189E+002	-1.3014937E+001	02/16/2024 15:04:22.5447	7.6627478E-002	8.8683504E-004	1.6572192E-001	8.4049739E-003	1.000000000000000E+000	11	1.0409840E-002	3.3929064E-005	0	3.522783407551793E-006	3.1755986E-003	7.3401676E-004	3.2593261E-003	1.3014937E+001	8.4049730E+000	3.6362682E+001	3.7321419E+001	-7.6985062E+001	0.0000000E+000	0.0000000E+000	0.0000000E+000	7.6985062E+001	0.0000000E+000	0.0000000E+000	0.0000000E+000	-7.6985062E+001	0.0000000E+000	0.0000000E+000	0.0000000E+000	-1.3014937E+001	0.0000000E+000	0.0000000E+000	0.0000000E+000	1.3014937E+001	4.3263297E+000	7.6985062E+001	4.262396357807528E-007
1.0002226E+004	3.0894241E+002	5.4237965E+001	3.1366730E+002	-9.9573812E+000	02/16/2024 15:04:23.1247	7.6649770E-002	1.1950356E-003	2.9337299E-001	8.7717930E-003	1.000000000000000E+000	11	1.0293305E-002	3.2815995E-005	0	3.594787192505262E-006	3.1400679E-003	5.5127073E-004	3.1880913E-003	9.9573812E+000	8.7717943E+000	4.9964615E+001	5.0728760E+001	-8.0042618E+001	0.0000000E+000	0.0000000E+000	0.0000000E+000	8.0042618E+001	0.0000000E+000	0.0000000E+000	0.0000000E+000	-8.0042618E+001	0.0000000E+000	0.0000000E+000	0.0000000E+000	-9.9573812E+000	0.0000000E+000	0.0000000E+000	0.0000000E+000	9.9573812E+000	5.6960549E+000	8.0042618E+001	7.200378495346907E-008
7.1953535E+003	3.1548190E+002	4.4685028E+001	3.1863080E+002	-8.0617790E+000	02/16/2024 15:04:23.8346	7.6638535E-002	1.1916755E-003	4.9500090E-001	9.7354166E-003	1.000000000000000E+000	11	1.0302076E-002	3.2332329E-005	0	3.880959462161223E-006	3.1074127E-003	4.4013566E-004	3.1384286E-003	8.0617790E+000	9.7354212E+000	6.8733261E+001	6.9419304E+001	-8.1938217E+001	0.0000000E+000	0.0000000E+000	0.0000000E+000	8.1938217E+001	0.0000000E+000	0.0000000E+000	0.0000000E+000	-8.1938217E+001	0.0000000E+000	0.0000000E+000	0.0000000E+000	-8.0617790E+000	0.0000000E+000	0.0000000E+000	0.0000000E+000	8.0617790E+000	7.0601254E+000	8.1938217E+001	2.861722696559609E-007
5.1814517E+003	3.1979257E+002	3.5165844E+001	3.2172025E+002	-6.2752914E+000	02/16/2024 15:04:24.7616	7.6655105E-002	1.0150807E-003	8.7346923E-001	1.0435972E-002	1.000000000000000E+000	11	1.0049904E-002	3.1238022E-005	0	3.985167495146116E-006	3.0896661E-003	3.3975375E-004	3.1082905E-003	6.2752914E+000	1.0435972E+001	9.4903069E+001	9.5475136E+001	-8.3724709E+001	0.0000000E+000	0.0000000E+000	0.0000000E+000	8.3724709E+001	0.0000000E+000	0.0000000E+000	0.0000000E+000	-8.3724709E+001	0.0000000E+000	0.0000000E+000	0.0000000E+000	-6.2752914E+000	0.0000000E+000	0.0000000E+000	0.0000000E+000	6.2752914E+000	9.0938406E+000	8.3724709E+001	1.042080329848936E-007
3.7264229E+003	3.2295587E+002	2.9482883E+001	3.2429883E+002	-5.2161164E+000	02/16/2024 15:04:25.4593	7.6652959E-002	1.0544693E-003	1.4486319E+000	1.1973117E-002	1.000000000000000E+000	11	1.0599964E-002	3.2685792E-005	0	4.117353377506738E-006	3.0708062E-003	2.8033621E-004	3.0835757E-003	5.2161164E+000	1.1973119E+001	1.3115366E+002	1.3169904E+002	-8.4783882E+001	0.0000000E+000	0.0000000E+000	0.0000000E+000	8.4783882E+001	0.0000000E+000	0.0000000E+000	0.0000000E+000	-8.4783882E+001	0.0000000E+000	0.0000000E+000	0.0000000E+000	-5.2161164E+000	0.0000000E+000	0.0000000E+000	0.0000000E+000	5.2161164E+000	1.0954013E+001	8.4783882E+001	1.321858823606213E-007
2.6824250E+003	3.2528448E+002	2.6311960E+001	3.2634692E+002	-4.6245337E+000	02/16/2024 15:04:26.1573	7.6616593E-002	1.0400952E-003	2.2549624E+000	1.4658404E-002	1.000000000000000E+000	11	1.0910136E-002	3.3431097E-005	0	4.250097849180949E-006	3.0542482E-003	2.4705529E-004	3.0642238E-003	4.6245337E+000	1.4658407E+001	1.8121613E+002	1.8180801E+002	-8.5375465E+001	0.0000000E+000	0.0000000E+000	0.0000000E+000	8.5375465E+001	0.0000000E+000	0.0000000E+000	0.0000000E+000	-8.5375465E+001	0.0000000E+000	0.0000000E+000	0.0000000E+000	-4.6245337E+000	0.0000000E+000	0.0000000E+000	0.0000000E+000	4.6245337E+000	1.2362609E+001	8.5375465E+001	1.327444716742116E-007
1.9306176E+003	3.2710693E+002	2.2910458E+001	3.2790826E+002	-4.0064340E+000	02/16/2024 15:04:27.0881	7.6630928E-002	1.0352416E-003	3.5982399E+000	1.7565193E-002	1.000000000000000E+000	11	1.0110855E-002	3.0834402E-005	0	4.485430306714079E-006	3.0421808E-003	2.1307329E-004	3.0496335E-003	4.0064340E+000	1.7565182E+001	2.5078923E+002	2.5140361E+002	-8.5993568E+001	0.0000000E+000	0.0000000E+000	0.0000000E+000	8.5993568E+001	0.0000000E+000	0.0000000E+000	0.0000000E+000	-8.5993568E+001	0.0000000E+000	0.0000000E+000	0.0000000E+000	-4.0064340E+000	0.0000000E+000	0.0000000E+000	0.0000000E+000	4.0064340E+000	1.4277625E+001	8.5993568E+001	2.353324575331297E-007
1.3886667E+003	3.3073132E+002	2.4039396E+001	3.3160382E+002	-4.1572661E+000	02/16/2024 15:04:27.7863	7.6689802E-002	1.0290814E-003	4.7675858E+000	2.5055703E-002	1.000000000000000E+000	11	1.0213533E-002	3.0800409E-005	0	4.762853448142980E-006	3.0077121E-003	2.1861729E-004	3.0156467E-003	4.1572661E+000	2.5055695E+001	3.4471353E+002	3.4562292E+002	-8.5842735E+001	0.0000000E+000	0.0000000E+000	0.0000000E+000	8.5842735E+001	0.0000000E+000	0.0000000E+000	0.0000000E+000	-8.5842735E+001	0.0000000E+000	0.0000000E+000	0.0000000E+000	-4.1572661E+000	0.0000000E+000	0.0000000E+000	0.0000000E+000	4.1572661E+000	1.3757888E+001	8.5842735E+001	2.774231414289011E-007
1.0003202E+003	3.3399521E+002	2.6089371E+001	3.3501260E+002	-4.4664764E+000	02/16/2024 15:04:28.7491	7.6632664E-002	1.0233741E-004	6.0984221E+000	3.6984727E-002	1.000000000000000E+000	12	1.0088917E-002	3.0115036E-005	0	4.710077230303392E-006	2.9758974E-003	2.3245631E-004	2.9849624E-003	4.4664764E+000	3.6984726E+001	4.7347714E+002	4.7491943E+002	-8.5533524E+001	0.0000000E+000	0.0000000E+000	0.0000000E+000	8.5533524E+001	0.0000000E+000	0.0000000E+000	0.0000000E+000	-8.5533524E+001	0.0000000E+000	0.0000000E+000	0.0000000E+000	-4.4664764E+000	0.0000000E+000	0.0000000E+000	0.0000000E+000	4.4664764E+000	1.2801965E+001	8.5533524E+001	-5.277621783958855E-008
7.1930957E+002	3.3897565E+002	2.6871828E+001	3.4003909E+002	-4.5325651E+000	02/16/2024 15:04:29.4473	7.6672845E-002	7.8491212E-005	8.2339287E+000	5.1421393E-002	1.000000000000000E+000	12	1.0254499E-002	3.0156822E-005	0	4.583472514920332E-006	2.9316409E-003	2.3240180E-004	2.9408382E-003	4.5325651E+000	5.1421356E+001	6.4865698E+002	6.5069196E+002	-8.5467438E+001	0.0000000E+000	0.0000000E+000	0.0000000E+000	8.5467438E+001	0.0000000E+000	0.0000000E+000	0.0000000E+000	-8.5467438E+001	0.0000000E+000	0.0000000E+000	0.0000000E+000	-4.5325651E+000	0.0000000E+000	0.0000000E+000	0.0000000E+000	4.5325651E+000	1.2614536E+001	8.5467438E+001	-1.266047153830597E-007
5.1817603E+002	3.4227313E+002	3.1161348E+001	3.4368872E+002	-5.2020011E+000	02/16/2024 15:04:30.1468	7.6648615E-002	6.8825851E-005	9.8565874E+000	8.1026770E-002	1.000000000000000E+000	12	1.0298455E-002	2.9964483E-005	0	4.633524184231646E-006	2.8976256E-003	2.6380664E-004	2.9096096E-003	5.2020011E+000	8.1026802E+001	8.8998987E+002	8.9367072E+002	-8.4797997E+001	0.0000000E+000	0.0000000E+000	0.0000000E+000	8.4797997E+001	0.0000000E+000	0.0000000E+000	0.0000000E+000	-8.4797997E+001	0.0000000E+000	0.0000000E+000	0.0000000E+000	-5.2020011E+000	0.0000000E+000	0.0000000E+000	0.0000000E+000	5.2020011E+000	1.0983900E+001	8.4797997E+001	5.005166931131390E-008
3.7273376E+002	3.4806494E+002	3.5682457E+001	3.4988919E+002	-5.8533235E+000	02/16/2024 15:04:30.8464	7.6636054E-002	5.8544723E-005	1.1966487E+001	1.2445579E-001	1.000000000000000E+000	12	1.0345096E-002	2.9566776E-005	0	4.530687836212261E-006	2.8431464E-003	2.9146986E-004	2.8580476E-003	5.8533235E+000	1.2445581E+002	1.2140055E+003	1.2203682E+003	-8.4146675E+001	0.0000000E+000	0.0000000E+000	0.0000000E+000	8.4146675E+001	0.0000000E+000	0.0000000E+000	0.0000000E+000	-8.4146675E+001	0.0000000E+000	0.0000000E+000	0.0000000E+000	-5.8533235E+000	0.0000000E+000	0.0000000E+000	0.0000000E+000	5.8533235E+000	9.7545118E+000	8.4146675E+001	-1.028363480193846E-007
2.6836835E+002	3.5218655E+002	4.1777218E+001	3.5465576E+002	-6.7649512E+000	02/16/2024 15:04:31.5474	7.6662704E-002	7.4236894E-005	1.4195457E+001	1.9697645E-001	1.000000000000000E+000	12	1.0332289E-002	2.9133289E-005	0	4.651238350995603E-006	2.8000046E-003	3.3214330E-004	2.8196357E-003	6.7649512E+000	1.9697653E+002	1.6605333E+003	1.6721754E+003	-8.3235046E+001	0.0000000E+000	0.0000000E+000	0.0000000E+000	8.3235046E+001	0.0000000E+000	0.0000000E+000	0.0000000E+000	-8.3235046E+001	0.0000000E+000	0.0000000E+000	0.0000000E+000	-6.7649512E+000	0.0000000E+000	0.0000000E+000	0.0000000E+000	6.7649512E+000	8.4301100E+000	8.3235046E+001	1.205505147833412E-007
1.9308463E+002	3.5783566E+002	5.0019348E+001	3.6131467E+002	-7.9574170E+000	02/16/2024 15:04:32.2501	7.6689206E-002	1.2517598E-004	1.6479134E+001	3.1581974E-001	1.000000000000000E+000	12	1.0334177E-002	2.8601598E-005	0	4.580485544482952E-006	2.7410213E-003	3.8314826E-004	2.7676707E-003	7.9574170E+000	3.1581985E+002	2.2593569E+003	2.2813232E+003	-8.2042580E+001	0.0000000E+000	0.0000000E+000	0.0000000E+000	8.2042580E+001	0.0000000E+000	0.0000000E+000	0.0000000E+000	-8.2042580E+001	0.0000000E+000	0.0000000E+000	0.0000000E+000	-7.9574170E+000	0.0000000E+000	0.0000000E+000	0.0000000E+000	7.9574170E+000	7.1539450E+000	8.2042580E+001	-7.075280651265010E-008
1.3897710E+002	3.6402402E+002	5.9578144E+001	3.6886725E+002	-9.2949295E+000	02/16/2024 15:04:32.9516	7.6632008E-002	1.1349542E-004	1.9221617E+001	5.0144541E-001	1.000000000000000E+000	12	1.0319523E-002	2.7976252E-005	0	4.693882147444027E-006	2.6754071E-003	4.3787161E-004	2.7110025E-003	9.2949295E+000	5.0144540E+002	3.0638447E+003	3.1046082E+003	-8.0705070E+001	0.0000000E+000	0.0000000E+000	0.0000000E+000	8.0705070E+001	0.0000000E+000	0.0000000E+000	0.0000000E+000	-8.0705070E+001	0.0000000E+000	0.0000000E+000	0.0000000E+000	-9.2949295E+000	0.0000000E+000	0.0000000E+000	0.0000000E+000	9.2949295E+000	6.1100264E+000	8.0705070E+001	1.133966029610747E-007
1.0003201E+002	3.7142224E+002	7.3223885E+001	3.7857129E+002	-1.1152536E+001	02/16/2024 15:04:33.6481	7.6664701E-002	1.0045273E-004	2.1728432E+001	8.1290269E-001	1.000000000000000E+000	12	1.0324043E-002	2.7271068E-005	0	4.859694204608685E-006	2.5916274E-003	5.1092537E-004	2.6415105E-003	1.1152536E+001	8.1290259E+002	4.1233833E+003	4.2027490E+003	-7.8847466E+001	0.0000000E+000	0.0000000E+000	0.0000000E+000	7.8847466E+001	0.0000000E+000	0.0000000E+000	0.0000000E+000	-7.8847466E+001	0.0000000E+000	0.0000000E+000	0.0000000E+000	-1.1152536E+001	0.0000000E+000	0.0000000E+000	0.0000000E+000	1.1152536E+001	5.0724192E+000	7.8847466E+001	1.658120571646575E-007
7.1957260E+001	3.7836407E+002	9.0938576E+001	3.8913904E+002	-1.3514517E+001	02/16/2024 15:04:34.3297	7.6649435E-002	2.8093151E-005	2.4321894E+001	1.3282629E+000	1.000000000000000E+000	12	1.0348514E-002	2.6593358E-005	0	5.018818512960428E-006	2.4986204E-003	6.0053531E-004	2.5697756E-003	1.3514517E+001	1.3282629E+003	5.5264438E+003	5.6838247E+003	-7.6485481E+001	0.0000000E+000	0.0000000E+000	0.0000000E+000	7.6485481E+001	0.0000000E+000	0.0000000E+000	0.0000000E+000	-7.6485481E+001	0.0000000E+000	0.0000000E+000	0.0000000E+000	-1.3514517E+001	0.0000000E+000	0.0000000E+000	0.0000000E+000	1.3514517E+001	4.1606555E+000	7.6485481E+001	1.591243083517435E-007
5.1807030E+001	3.9019858E+002	1.0994699E+002	4.0539273E+002	-1.5736344E+001	02/16/2024 15:04:35.0041	7.6649919E-002	4.0016221E-005	2.7941397E+001	2.0552416E+000	1.000000000000000E+000	12	1.0339315E-002	2.5504442E-005	0	4.970237280775311E-006	2.3742900E-003	6.6900818E-004	2.4667438E-003	1.5736344E+001	2.0552415E+003	7.2939902E+003	7.5780151E+003	-7.4263657E+001	0.0000000E+000	0.0000000E+000	0.0000000E+000	7.4263657E+001	0.0000000E+000	0.0000000E+000	0.0000000E+000	-7.4263657E+001	0.0000000E+000	0.0000000E+000	0.0000000E+000	-1.5736344E+001	0.0000000E+000	0.0000000E+000	0.0000000E+000	1.5736344E+001	3.5489700E+000	7.4263657E+001	-4.858123218511688E-008
3.7253067E+001	4.0201929E+002	1.4596342E+002	4.2769711E+002	-1.9954729E+001	02/16/2024 15:04:35.6650	7.6626323E-002	1.2097757E-004	2.9269415E+001	3.4090197E+000	1.000000000000000E+000	12	1.0328420E-002	2.4148912E-005	0	4.910236707951400E-006	2.1977294E-003	7.9794216E-004	2.3381033E-003	1.9954729E+001	3.4090195E+003	9.3892813E+003	9.9889951E+003	-7.0045273E+001	0.0000000E+000	0.0000000E+000	0.0000000E+000	7.0045273E+001	0.0000000E+000	0.0000000E+000	0.0000000E+000	-7.0045273E+001	0.0000000E+000	0.0000000E+000	0.0000000E+000	-1.9954729E+001	0.0000000E+000	0.0000000E+000	0.0000000E+000	1.9954729E+001	2.7542467E+000	7.0045273E+001	-6.000057282391172E-008
2.6828640E+001	4.1638599E+002	1.8870232E+002	4.5714972E+002	-2.4379599E+001	02/16/2024 15:04:36.3225	7.6644160E-002	4.9308364E-005	3.1437225E+001	5.3565083E+000	1.000000000000000E+000	12	1.0319732E-002	2.2574075E-005	0	4.830935302554482E-006	1.9924121E-003	9.0294302E-004	2.1874672E-003	2.4379599E+001	5.3565093E+003	1.1819543E+004	1.2976663E+004	-6.5620399E+001	0.0000000E+000	0.0000000E+000	0.0000000E+000	6.5620399E+001	0.0000000E+000	0.0000000E+000	0.0000000E+000	-6.5620399E+001	0.0000000E+000	0.0000000E+000	0.0000000E+000	-2.4379599E+001	0.0000000E+000	0.0000000E+000	0.0000000E+000	2.4379599E+001	2.2065759E+000	6.5620399E+001	-7.930140539691725E-008
1.9313969E+001	4.3813983E+002	2.4125648E+002	5.0017117E+002	-2.8838856E+001	02/16/2024 15:04:37.0403	7.6626398E-002	1.0879323E-004	3.4156208E+001	7.9467635E+000	1.000000000000000E+000	12	1.0320589E-002	2.0634114E-005	0	4.991687846118819E-006	1.7513600E-003	9.6436555E-004	1.9993156E-003	2.8838856E+001	7.9467637E+003	1.4431917E+004	1.6475172E+004	-6.1161144E+001	0.0000000E+000	0.0000000E+000	0.0000000E+000	6.1161144E+001	0.0000000E+000	0.0000000E+000	0.0000000E+000	-6.1161144E+001	0.0000000E+000	0.0000000E+000	0.0000000E+000	-2.8838856E+001	0.0000000E+000	0.0000000E+000	0.0000000E+000	2.8838856E+001	1.8160748E+000	6.1161148E+001	1.607525435643363E-007
1.3884775E+001	4.6432758E+002	3.1250244E+002	5.5969446E+002	-3.3941402E+001	02/16/2024 15:04:37.7873	7.6659456E-002	7.8836121E-005	3.6679874E+001	1.1434908E+001	1.000000000000000E+000	12	1.0317642E-002	1.8434419E-005	0	5.092108067123971E-006	1.4822534E-003	9.9758850E-004	1.7866892E-003	3.3941402E+001	1.1434908E+004	1.6990404E+004	2.0480014E+004	-5.6058598E+001	0.0000000E+000	0.0000000E+000	0.0000000E+000	5.6058598E+001	0.0000000E+000	0.0000000E+000	0.0000000E+000	-5.6058598E+001	0.0000000E+000	0.0000000E+000	0.0000000E+000	-3.3941402E+001	0.0000000E+000	0.0000000E+000	0.0000000E+000	3.3941402E+001	1.4858366E+000	5.6058594E+001	1.004202210051520E-007
1.0003201E+001	5.0105856E+002	4.0222028E+002	6.4252692E+002	-3.8755444E+001	02/16/2024 15:04:38.4821	7.6645412E-002	7.3900745E-005	3.9556435E+001	1.5501097E+001	1.000000000000000E+000	12	1.0301979E-002	1.6033537E-005	0	5.063231759501933E-006	1.2136846E-003	9.7427447E-004	1.5563550E-003	3.8755444E+001	1.5501098E+004	1.9310209E+004	2.4762232E+004	-5.1244556E+001	0.0000000E+000	0.0000000E+000	0.0000000E+000	5.1244556E+001	0.0000000E+000	0.0000000E+000	0.0000000E+000	-5.1244556E+001	0.0000000E+000	0.0000000E+000	0.0000000E+000	-3.8755444E+001	0.0000000E+000	0.0000000E+000	0.0000000E+000	3.8755444E+001	1.2457317E+000	5.1244553E+001	-2.887630762203768E-008
7.1938338E+000	5.4557477E+002	5.2429059E+002	7.5665875E+002	-4.3860294E+001	02/16/2024 15:04:38.9960	7.6627888E-002	-8.1379461E-005	4.2197590E+001	2.0259638E+001	1.000000000000000E+000	12	1.0310297E-002	1.3626086E-005	0	5.125448483600445E-006	9.5291494E-004	9.1573951E-004	1.3215997E-003	4.3860294E+001	2.0259637E+004	2.1082100E+004	2.9238807E+004	-4.6139706E+001	0.0000000E+000	0.0000000E+000	0.0000000E+000	4.6139706E+001	0.0000000E+000	0.0000000E+000	0.0000000E+000	-4.6139706E+001	0.0000000E+000	0.0000000E+000	0.0000000E+000	-4.3860294E+001	0.0000000E+000	0.0000000E+000	0.0000000E+000	4.3860294E+001	1.0405961E+000	4.6139709E+001	6.221672409851174E-008
5.1807032E+000	6.1006744E+002	6.6941504E+002	9.0570349E+002	-4.7655708E+001	02/16/2024 15:04:39.9311	7.6656409E-002	-1.1038619E-004	4.5891891E+001	2.5070026E+001	1.000000000000000E+000	20	1.0325857E-002	1.1400924E-005	0	5.180703169760717E-006	7.4371370E-004	8.1606244E-004	1.1041141E-003	4.7655708E+001	2.5070029E+004	2.2847422E+004	3.3919184E+004	-4.2344292E+001	0.0000000E+000	0.0000000E+000	0.0000000E+000	4.2344292E+001	0.0000000E+000	0.0000000E+000	0.0000000E+000	-4.2344292E+001	0.0000000E+000	0.0000000E+000	0.0000000E+000	-4.7655708E+001	0.0000000E+000	0.0000000E+000	0.0000000E+000	4.7655708E+001	9.1134411E-001	4.2344299E+001	5.525468616027248E-008
3.7273378E+000	7.1280859E+002	8.5834302E+002	1.1157279E+003	-5.0292160E+001	02/16/2024 15:04:40.8366	7.6680169E-002	6.2374488E-006	4.9746265E+001	2.9441889E+001	1.000000000000000E+000	20	1.0326847E-002	9.2557038E-006	0	5.069688065139417E-006	5.7260651E-004	6.8951590E-004	8.9627586E-004	5.0292160E+001	2.9441891E+004	2.4449936E+004	3.8270410E+004	-3.9707840E+001	0.0000000E+000	0.0000000E+000	0.0000000E+000	3.9707840E+001	0.0000000E+000	0.0000000E+000	0.0000000E+000	-3.9707840E+001	0.0000000E+000	0.0000000E+000	0.0000000E+000	-5.0292160E+001	0.0000000E+000	0.0000000E+000	0.0000000E+000	5.0292160E+001	8.3044726E-001	3.9707840E+001	-1.110151046213004E-007
2.6847079E+000	8.3393848E+002	1.0835365E+003	1.3672983E+003	-5.2416500E+001	02/16/2024 15:04:42.0651	7.6648109E-002	5.6728873E-005	5.4711617E+001	3.4358963E+001	1.000000000000000E+000	20	1.0309904E-002	7.5403473E-006	0	5.057860210107113E-006	4.4607455E-004	5.7958480E-004	7.3136931E-004	5.2416500E+001	3.4358965E+004	2.6444205E+004	4.3357059E+004	-3.7583500E+001	0.0000000E+000	0.0000000E+000	0.0000000E+000	3.7583500E+001	0.0000000E+000	0.0000000E+000	0.0000000E+000	-3.7583500E+001	0.0000000E+000	0.0000000E+000	0.0000000E+000	-5.2416500E+001	0.0000000E+000	0.0000000E+000	0.0000000E+000	5.2416500E+001	7.6964504E-001	3.7583496E+001	-1.182785503230369E-008
1.9299656E+000	1.0004131E+003	1.3719397E+003	1.6979531E+003	-5.3900616E+001	02/16/2024 15:04:43.7411	7.6660916E-002	4.6831636E-007	6.0108452E+001	3.9242275E+001	1.000000000000000E+000	20	1.0314607E-002	6.0747302E-006	0	5.243749970160277E-006	3.4699880E-004	4.7586486E-004	5.8894441E-004	5.3900616E+001	3.9242273E+004	2.8615313E+004	4.8567398E+004	-3.6099384E+001	0.0000000E+000	0.0000000E+000	0.0000000E+000	3.6099384E+001	0.0000000E+000	0.0000000E+000	0.0000000E+000	-3.6099384E+001	0.0000000E+000	0.0000000E+000	0.0000000E+000	-5.3900616E+001	0.0000000E+000	0.0000000E+000	0.0000000E+000	5.3900616E+001	7.2919613E-001	3.6099380E+001	1.858897600531643E-007
1.3881482E+000	1.2234946E+003	1.7051165E+003	2.0986570E+003	-5.4338928E+001	02/16/2024 15:04:46.0459	7.6665074E-002	2.8151577E-005	6.7240395E+001	4.4386963E+001	1.000000000000000E+000	20	1.0319889E-002	4.9173777E-006	0	5.240251440734230E-006	2.7779164E-004	3.8714273E-004	4.7649522E-004	5.4338928E+001	4.4386961E+004	3.1849559E+004	5.4631461E+004	-3.5661072E+001	0.0000000E+000	0.0000000E+000	0.0000000E+000	3.5661072E+001	0.0000000E+000	0.0000000E+000	0.0000000E+000	-3.5661072E+001	0.0000000E+000	0.0000000E+000	0.0000000E+000	-5.4338928E+001	0.0000000E+000	0.0000000E+000	0.0000000E+000	5.4338928E+001	7.1754313E-001	3.5661072E+001	-3.498529426047523E-009
1.0000639E+000	1.4765951E+003	2.0893252E+003	2.5584395E+003	-5.4749889E+001	02/16/2024 15:04:50.2781	7.6663300E-002	4.4550402E-006	7.6170418E+001	5.0798176E+001	1.000000000000000E+000	21	1.0328703E-002	4.0371106E-006	0	5.104451481411401E-006	2.2558548E-004	3.1919475E-004	3.9086328E-004	5.4749889E+001	5.0798176E+004	3.5900746E+004	6.2203844E+004	-3.5250111E+001	0.0000000E+000	0.0000000E+000	0.0000000E+000	3.5250111E+001	0.0000000E+000	0.0000000E+000	0.0000000E+000	-3.5250111E+001	0.0000000E+000	0.0000000E+000	0.0000000E+000	-5.4749889E+001	0.0000000E+000	0.0000000E+000	0.0000000E+000	5.4749889E+001	7.0673299E-001	3.5250107E+001	-1.357999593228288E-007
7.2017908E-001	1.7789363E+003	2.5567847E+003	3.1147651E+003	-5.5170929E+001	02/16/2024 15:04:54.6548	7.6666594E-002	8.9673895E-006	8.6434174E+001	5.8240242E+001	1.000000000000000E+000	21	1.0325636E-002	3.3150607E-006	0	5.019326916054176E-006	1.8336218E-004	2.6353818E-004	3.2105148E-004	5.5170929E+001	5.8240242E+004	4.0521863E+004	7.0950313E+004	-3.4829071E+001	0.0000000E+000	0.0000000E+000	0.0000000E+000	3.4829071E+001	0.0000000E+000	0.0000000E+000	0.0000000E+000	-3.4829071E+001	0.0000000E+000	0.0000000E+000	0.0000000E+000	-5.5170929E+001	0.0000000E+000	0.0000000E+000	0.0000000E+000	5.5170929E+001	6.9577086E-001	3.4829071E+001	-8.512456535722460E-008
5.1752120E-001	2.1139561E+003	3.1490085E+003	3.7927649E+003	-5.6126205E+001	02/16/2024 15:05:00.7198	7.6675616E-002	-1.9097818E-006	9.7660324E+001	6.7321533E+001	1.000000000000000E+000	21	1.0316798E-002	2.7201261E-006	0	5.059149309252954E-006	1.4695492E-004	2.1890819E-004	2.6365989E-004	5.6126205E+001	6.7321531E+004	4.5193508E+004	8.1084164E+004	-3.3873795E+001	0.0000000E+000	0.0000000E+000	0.0000000E+000	3.3873795E+001	0.0000000E+000	0.0000000E+000	0.0000000E+000	-3.3873795E+001	0.0000000E+000	0.0000000E+000	0.0000000E+000	-5.6126205E+001	0.0000000E+000	0.0000000E+000	0.0000000E+000	5.6126205E+001	6.7130846E-001	3.3873795E+001	3.982239319877772E-008
3.7244946E-001	2.4512378E+003	3.9094004E+003	4.6143232E+003	-5.7911827E+001	02/16/2024 15:05:09.1221	7.6670535E-002	-1.4244285E-006	1.0930566E+002	7.8459747E+001	1.000000000000000E+000	21	1.0320868E-002	2.2367026E-006	0	5.248264575454427E-006	1.1512495E-004	1.8360907E-004	2.1671651E-004	5.7911827E+001	7.8459750E+004	4.9195141E+004	9.2607203E+004	-3.2088173E+001	0.0000000E+000	0.0000000E+000	0.0000000E+000	3.2088173E+001	0.0000000E+000	0.0000000E+000	0.0000000E+000	-3.2088173E+001	0.0000000E+000	0.0000000E+000	0.0000000E+000	-5.7911827E+001	0.0000000E+000	0.0000000E+000	0.0000000E+000	5.7911827E+001	6.2701118E-001	3.2088165E+001	1.891152662014724E-007
2.6843393E-001	2.8562385E+003	4.9016904E+003	5.6731533E+003	-5.9770439E+001	02/16/2024 15:05:20.7555	7.6671407E-002	-5.4331036E-007	1.2095862E+002	9.0298294E+001	1.000000000000000E+000	21	1.0316872E-002	1.8185427E-006	0	5.475855645845766E-006	8.8745321E-005	1.5229893E-004	1.7626882E-004	5.9770439E+001	9.0298297E+004	5.2617254E+004	1.0451009E+005	-3.0229561E+001	0.0000000E+000	0.0000000E+000	0.0000000E+000	3.0229561E+001	0.0000000E+000	0.0000000E+000	0.0000000E+000	-3.0229561E+001	0.0000000E+000	0.0000000E+000	0.0000000E+000	-5.9770439E+001	0.0000000E+000	0.0000000E+000	0.0000000E+000	5.9770439E+001	5.8270478E-001	3.0229553E+001	2.275910703913396E-007
1.9284412E-001	3.3329353E+003	6.3067563E+003	7.1332764E+003	-6.2144867E+001	02/16/2024 15:05:36.9226	7.6672204E-002	-2.8176598E-006	1.3086023E+002	1.0229200E+002	1.000000000000000E+000	21	1.0313576E-002	1.4458400E-006	0	5.550932417092251E-006	6.5501117E-005	1.2394469E-004	1.4018803E-004	6.2144867E+001	1.0229201E+005	5.4058316E+004	1.1569770E+005	-2.7855133E+001	0.0000000E+000	0.0000000E+000	0.0000000E+000	2.7855133E+001	0.0000000E+000	0.0000000E+000	0.0000000E+000	-2.7855133E+001	0.0000000E+000	0.0000000E+000	0.0000000E+000	-6.2144867E+001	0.0000000E+000	0.0000000E+000	0.0000000E+000	6.2144867E+001	5.2847058E-001	2.7855133E+001	7.507677124648494E-008
1.3893336E-001	3.8679717E+003	8.1623032E+003	9.0324082E+003	-6.4644554E+001	02/16/2024 15:05:59.3428	7.6669440E-002	-3.6379213E-006	1.4034627E+002	1.1460912E+002	1.000000000000000E+000	21	1.0311157E-002	1.1415734E-006	0	5.393072126800411E-006	4.7410675E-005	1.0004736E-004	1.1071245E-004	6.4644554E+001	1.1460913E+005	5.4311238E+004	1.2682651E+005	-2.5355446E+001	0.0000000E+000	0.0000000E+000	0.0000000E+000	2.5355446E+001	0.0000000E+000	0.0000000E+000	0.0000000E+000	-2.5355446E+001	0.0000000E+000	0.0000000E+000	0.0000000E+000	-6.4644554E+001	0.0000000E+000	0.0000000E+000	0.0000000E+000	6.4644554E+001	4.7388238E-001	2.5355438E+001	-1.578602902918396E-007
9.9904090E-002	4.6244404E+003	1.0683575E+004	1.1641487E+004	-6.6594376E+001	02/16/2024 15:06:30.4946	7.6668829E-002	-1.1756051E-006	1.4911464E+002	1.2558465E+002	1.000000000000000E+000	21	1.0313476E-002	8.8592429E-007	0	5.083257055375384E-006	3.4122615E-005	7.8831479E-005	8.5899679E-005	6.6594376E+001	1.2558464E+005	5.4359965E+004	1.3684483E+005	-2.3405624E+001	0.0000000E+000	0.0000000E+000	0.0000000E+000	2.3405624E+001	0.0000000E+000	0.0000000E+000	0.0000000E+000	-2.3405624E+001	0.0000000E+000	0.0000000E+000	0.0000000E+000	-6.6594376E+001	0.0000000E+000	0.0000000E+000	0.0000000E+000	6.6594376E+001	4.3285513E-001	2.3405624E+001	-3.098150714250277E-007