EC-Lab ASCII FILE
Nb header lines : 65                          

Potentio Electrochemical Impedance Spectroscopy

Run on channel : 1 (SN 6813)
User : 
CE vs. WE compliance from -10 V to 10 V
Electrode connection : standard
Potential control : Ewe
Ewe ctrl range : min = -1.00 V, max = 1.00 V
Safety Limits :
	Do not start on E overload
Acquisition started on : 02/16/2024 15:10:14.433
Technique started on : 02/16/2024 15:10:15.973
Loaded Setting File :  NONE
Saved on :
	File : 07 2EL413 RVC EtOH TBA-BF4_(under Ar) solidstateref+faradaiccage EIS 0-1.mpr
	Directory : C:\Users\VSP\Documents\EC-Lab\Data\Louis\2024 02 16\
	Host : 10.10.11.222
Device : VSP (SN 0301)
Address : USB
EC-Lab for windows v11.50 (software)
Internet server v11.50 (firmware)
Command interpretor v11.50 (firmware)
Electrode material : 
Initial state : 
Electrolyte : 
Comments : 
Current amplifier : Low Current
Electrode surface area : 0.001 cm²
Characteristic mass : 0.001 g
Equivalent Weight : 0.000 g/eq.
Density : 0.000 g/cm3
Volume (V) : 0.001 cm³
Cycle Definition : Charge/Discharge alternance
Mode                Single sine         
E (V)               0.1000              
vs.                 Eoc                 
tE (h:m:s)          0:00:0.0000         
record              0                   
dI                  0.000               
unit dI             mA                  
dt (s)              0.000               
fi                  1.000               
unit fi             MHz                 
ff                  0.100               
unit ff             Hz                  
Nd                  50                  
Points              from fi to ff       
spacing             Logarithmic         
Va (mV)             10.0                
pw                  0.10                
Na                  3                   
corr                0                   
E range min (V)     -1.000              
E range max (V)     1.000               
I Range             Auto                
Bandwidth           4                   
nc cycles           0                   
goto Ns'            0                   
nr cycles           0                   
inc. cycle          0                   

freq/Hz	Re(Z)/Ohm	-Im(Z)/Ohm	|Z|/Ohm	Phase(Z)/deg	time/s	<Ewe>/V	<I>/mA	Cs/µF	Cp/µF	cycle number	I Range	|Ewe|/V	|I|/A	Ns	(Q-Qo)/mA.h	Re(Y)/Ohm-1	Im(Y)/Ohm-1	|Y|/Ohm-1	Phase(Y)/deg	Re(C)/nF	Im(C)/nF	|C|/nF	Phase(C)/deg	Re(M)	Im(M)	|M|	Phase(M)/deg	Re(Permittivity)	Im(Permittivity)	|Permittivity|	Phase(Permittivity)/deg	Re(Resistivity)/Ohm.cm	Im(Resistivity)/Ohm.cm	|Resistivity|/Ohm.cm	Phase(Resistivity)/deg	Re(Conductivity)/mS/cm	Im(Conductivity)/mS/cm	|Conductivity|/mS/cm	Phase(Conductivity)/deg	Tan(Delta)	Loss Angle(Delta)/deg	dq/mA.h	
1.0000186E+006	-3.0310553E+002	-1.1488229E+002	3.2414642E+002	1.5924242E+002	02/16/2024 15:10:15.9727	1.7706330E-001	2.7036616E-003	-1.3853484E-003	-1.7401339E-004	1.000000000000000E+000	12	1.1792744E-003	3.6380918E-006	0	1.855992055962209E-006	-2.8847714E-003	-1.0933788E-003	3.0850256E-003	-1.5924242E+002	-1.7401339E-001	-4.5911705E-001	4.9098793E-001	1.1075758E+002	0.0000000E+000	0.0000000E+000	0.0000000E+000	-1.1075758E+002	0.0000000E+000	0.0000000E+000	0.0000000E+000	1.1075758E+002	0.0000000E+000	0.0000000E+000	0.0000000E+000	1.5924242E+002	0.0000000E+000	0.0000000E+000	0.0000000E+000	-1.5924242E+002	2.6384010E+000	6.9242416E+001	1.855992055962209E-006
7.1968713E+005	-2.1793698E+002	3.7000674E+002	4.2941998E+002	-1.2049843E+002	02/16/2024 15:10:16.5517	1.7755409E-001	2.0867579E-003	5.9767731E-004	4.4373280E-004	1.000000000000000E+000	12	1.3068211E-003	3.0432238E-006	0	2.265077585582630E-006	-1.1818609E-003	2.0065277E-003	2.3287225E-003	1.2049843E+002	4.4373283E-001	-2.6136222E-001	5.1498449E-001	3.0498428E+001	0.0000000E+000	0.0000000E+000	0.0000000E+000	-3.0498428E+001	0.0000000E+000	0.0000000E+000	0.0000000E+000	3.0498428E+001	0.0000000E+000	0.0000000E+000	0.0000000E+000	-1.2049843E+002	0.0000000E+000	0.0000000E+000	0.0000000E+000	1.2049843E+002	5.8900815E-001	3.0498428E+001	4.090855296204205E-007
5.1794463E+005	4.8429226E+001	1.5990077E+002	1.6707378E+002	-7.3149986E+001	02/16/2024 15:10:18.1127	1.7771375E-001	2.5208017E-003	1.9217028E-003	1.7602355E-003	1.000000000000000E+000	11	2.7379745E-003	1.6387818E-005	0	4.166432885840398E-006	1.7349661E-003	5.7284082E-003	5.9853797E-003	7.3149986E+001	1.7602355E+000	5.3312343E-001	1.8391981E+000	-1.6850014E+001	0.0000000E+000	0.0000000E+000	0.0000000E+000	1.6850014E+001	0.0000000E+000	0.0000000E+000	0.0000000E+000	-1.6850014E+001	0.0000000E+000	0.0000000E+000	0.0000000E+000	-7.3149986E+001	0.0000000E+000	0.0000000E+000	0.0000000E+000	7.3149986E+001	3.0287048E-001	1.6850006E+001	1.901355300257769E-006
3.7276388E+005	8.8170807E+001	1.2423792E+002	1.5234550E+002	-5.4636936E+001	02/16/2024 15:10:18.6917	1.7767534E-001	2.2378028E-003	3.4366250E-003	2.2854998E-003	1.000000000000000E+000	11	4.2800913E-003	2.8094633E-005	0	4.537758409706132E-006	3.7989672E-003	5.3529711E-003	6.5640272E-003	5.4636936E+001	2.2854998E+000	1.6220038E+000	2.8025713E+000	-3.5363064E+001	0.0000000E+000	0.0000000E+000	0.0000000E+000	3.5363064E+001	0.0000000E+000	0.0000000E+000	0.0000000E+000	-3.5363064E+001	0.0000000E+000	0.0000000E+000	0.0000000E+000	-5.4636936E+001	0.0000000E+000	0.0000000E+000	0.0000000E+000	5.4636936E+001	7.0969319E-001	3.5363068E+001	3.713255238657334E-007
2.6826938E+005	9.8867096E+001	1.0780322E+002	1.4627452E+002	-4.7475842E+001	02/16/2024 15:10:19.2707	1.7756449E-001	1.8097571E-003	5.5032251E-003	2.9891201E-003	1.000000000000000E+000	11	6.3880761E-003	4.3671829E-005	0	4.581357639281678E-006	4.6207705E-003	5.0384193E-003	6.8364604E-003	4.7475842E+001	2.9891202E+000	2.7413435E+000	4.0558357E+000	-4.2524158E+001	0.0000000E+000	0.0000000E+000	0.0000000E+000	4.2524158E+001	0.0000000E+000	0.0000000E+000	0.0000000E+000	-4.2524158E+001	0.0000000E+000	0.0000000E+000	0.0000000E+000	-4.7475842E+001	0.0000000E+000	0.0000000E+000	0.0000000E+000	4.7475842E+001	9.1710711E-001	4.2524155E+001	4.359922957554656E-008
1.9306711E+005	1.1080644E+002	1.0301939E+002	1.5129793E+002	-4.2914337E+001	02/16/2024 15:10:19.7017	1.7751940E-001	1.6830048E-003	8.0018956E-003	3.7099225E-003	1.000000000000000E+000	11	9.8042246E-003	6.4800784E-005	0	4.847105692191083E-006	4.8405984E-003	4.5004194E-003	6.6094757E-003	4.2914337E+001	3.7099226E+000	3.9903493E+000	5.4485240E+000	-4.7085663E+001	0.0000000E+000	0.0000000E+000	0.0000000E+000	4.7085663E+001	0.0000000E+000	0.0000000E+000	0.0000000E+000	-4.7085663E+001	0.0000000E+000	0.0000000E+000	0.0000000E+000	-4.2914337E+001	0.0000000E+000	0.0000000E+000	0.0000000E+000	4.2914337E+001	1.0755882E+000	4.7085663E+001	2.657480529094052E-007
1.3894559E+005	1.2564455E+002	1.0396218E+002	1.6307878E+002	-3.9605404E+001	02/16/2024 15:10:20.2807	1.7755893E-001	1.6699375E-003	1.1017929E-002	4.4777086E-003	1.000000000000000E+000	11	1.0509648E-002	6.4445223E-005	0	4.924615955744230E-006	4.7244229E-003	3.9091334E-003	6.1320057E-003	3.9605404E+001	4.4777083E+000	5.4115806E+000	7.0238934E+000	-5.0394596E+001	0.0000000E+000	0.0000000E+000	0.0000000E+000	5.0394596E+001	0.0000000E+000	0.0000000E+000	0.0000000E+000	-5.0394596E+001	0.0000000E+000	0.0000000E+000	0.0000000E+000	-3.9605404E+001	0.0000000E+000	0.0000000E+000	0.0000000E+000	3.9605404E+001	1.2085602E+000	5.0394592E+001	7.751026355314657E-008
1.0000371E+005	1.4361443E+002	1.0957282E+002	1.8064137E+002	-3.7342377E+001	02/16/2024 15:10:20.8597	1.7757632E-001	1.9456567E-003	1.4524499E-002	5.3440733E-003	1.000000000000000E+000	11	1.0702766E-002	5.9248701E-005	0	4.702295772692802E-006	4.4011236E-003	3.3579050E-003	5.5358303E-003	3.7342377E+001	5.3440733E+000	7.0043464E+000	8.8102207E+000	-5.2657623E+001	0.0000000E+000	0.0000000E+000	0.0000000E+000	5.2657623E+001	0.0000000E+000	0.0000000E+000	0.0000000E+000	-5.2657623E+001	0.0000000E+000	0.0000000E+000	0.0000000E+000	-3.7342377E+001	0.0000000E+000	0.0000000E+000	0.0000000E+000	3.7342377E+001	1.3106756E+000	5.2657623E+001	-2.223201830514281E-007
7.1964070E+004	1.6649731E+002	1.1617160E+002	2.0302019E+002	-3.4904968E+001	02/16/2024 15:10:21.4387	1.7759439E-001	2.0317140E-003	1.9037260E-002	6.2334132E-003	1.000000000000000E+000	11	1.0714922E-002	5.2777617E-005	0	4.833303194974481E-006	4.0395106E-003	2.8185225E-003	4.9256184E-003	3.4904968E+001	6.2334132E+000	8.9337378E+000	1.0893443E+001	-5.5095032E+001	0.0000000E+000	0.0000000E+000	0.0000000E+000	5.5095032E+001	0.0000000E+000	0.0000000E+000	0.0000000E+000	-5.5095032E+001	0.0000000E+000	0.0000000E+000	0.0000000E+000	-3.4904968E+001	0.0000000E+000	0.0000000E+000	0.0000000E+000	3.4904968E+001	1.4332016E+000	5.5095032E+001	1.310074222816792E-007
5.1792605E+004	1.9515092E+002	1.2291903E+002	2.3063602E+002	-3.2205452E+001	02/16/2024 15:10:22.0177	1.7759456E-001	1.7330337E-003	2.4999611E-002	7.1009630E-003	1.000000000000000E+000	11	1.0683902E-002	4.6323647E-005	0	5.421527022363180E-006	3.6687350E-003	2.3108132E-003	4.3358360E-003	3.2205452E+001	7.1009631E+000	1.1273759E+001	1.3323712E+001	-5.7794548E+001	0.0000000E+000	0.0000000E+000	0.0000000E+000	5.7794548E+001	0.0000000E+000	0.0000000E+000	0.0000000E+000	-5.7794548E+001	0.0000000E+000	0.0000000E+000	0.0000000E+000	-3.2205452E+001	0.0000000E+000	0.0000000E+000	0.0000000E+000	3.2205452E+001	1.5876380E+000	5.7794548E+001	5.882238273886990E-007
3.7271750E+004	2.2819569E+002	1.2603358E+002	2.6068704E+002	-2.8912081E+001	02/16/2024 15:10:22.5967	1.7759082E-001	1.4280063E-003	3.3880834E-002	7.9193171E-003	1.000000000000000E+000	11	1.0700190E-002	4.1046111E-005	0	5.583054935511528E-006	3.3579061E-003	1.8545877E-003	3.8360173E-003	2.8912081E+001	7.9193163E+000	1.4338671E+001	1.6380264E+001	-6.1087921E+001	0.0000000E+000	0.0000000E+000	0.0000000E+000	6.1087921E+001	0.0000000E+000	0.0000000E+000	0.0000000E+000	-6.1087921E+001	0.0000000E+000	0.0000000E+000	0.0000000E+000	-2.8912081E+001	0.0000000E+000	0.0000000E+000	0.0000000E+000	2.8912081E+001	1.8105944E+000	6.1087921E+001	1.615279131483476E-007
2.6824154E+004	2.6371588E+002	1.1992500E+002	2.8970343E+002	-2.4453703E+001	02/16/2024 15:10:23.1757	1.7762554E-001	1.4642213E-003	4.9474835E-002	8.4780613E-003	1.000000000000000E+000	11	1.0668068E-002	3.6824102E-005	0	6.045124605365547E-006	3.1421653E-003	1.4289020E-003	3.4518058E-003	2.4453703E+001	8.4780617E+000	1.8643314E+001	2.0480495E+001	-6.5546295E+001	0.0000000E+000	0.0000000E+000	0.0000000E+000	6.5546295E+001	0.0000000E+000	0.0000000E+000	0.0000000E+000	-6.5546295E+001	0.0000000E+000	0.0000000E+000	0.0000000E+000	-2.4453703E+001	0.0000000E+000	0.0000000E+000	0.0000000E+000	2.4453703E+001	2.1990066E+000	6.5546295E+001	4.620696698540195E-007
1.9308566E+004	2.9514597E+002	1.0645728E+002	3.1375833E+002	-1.9834053E+001	02/16/2024 15:10:23.7547	1.7760865E-001	1.7192194E-003	7.7427417E-002	8.9136371E-003	1.000000000000000E+000	11	1.0537407E-002	3.3584471E-005	0	6.586529397121517E-006	2.9981013E-003	1.0813961E-003	3.1871663E-003	1.9834053E+001	8.9136372E+000	2.4712484E+001	2.6270893E+001	-7.0165947E+001	0.0000000E+000	0.0000000E+000	0.0000000E+000	7.0165947E+001	0.0000000E+000	0.0000000E+000	0.0000000E+000	-7.0165947E+001	0.0000000E+000	0.0000000E+000	0.0000000E+000	-1.9834053E+001	0.0000000E+000	0.0000000E+000	0.0000000E+000	1.9834053E+001	2.7724357E+000	7.0165947E+001	5.414047917559698E-007
1.3899199E+004	3.1746912E+002	8.8798698E+001	3.2965414E+002	-1.5626739E+001	02/16/2024 15:10:24.3337	1.7763008E-001	1.8147971E-003	1.2895072E-001	9.3566393E-003	1.000000000000000E+000	11	1.0449153E-002	3.1697320E-005	0	6.888172225356546E-006	2.9213554E-003	8.1712689E-004	3.0334822E-003	1.5626739E+001	9.3566399E+000	3.3451439E+001	3.4735363E+001	-7.4373260E+001	0.0000000E+000	0.0000000E+000	0.0000000E+000	7.4373260E+001	0.0000000E+000	0.0000000E+000	0.0000000E+000	-7.4373260E+001	0.0000000E+000	0.0000000E+000	0.0000000E+000	-1.5626739E+001	0.0000000E+000	0.0000000E+000	0.0000000E+000	1.5626739E+001	3.5751550E+000	7.4373260E+001	3.016428282350285E-007
1.0002226E+004	3.3270169E+002	7.0410179E+001	3.4007059E+002	-1.1949283E+001	02/16/2024 15:10:24.9137	1.7761712E-001	1.6264418E-003	2.2598940E-001	9.6877022E-003	1.000000000000000E+000	11	1.0340825E-002	3.0407877E-005	0	7.161056344008317E-006	2.8768477E-003	6.0883176E-004	2.9405660E-003	1.1949283E+001	9.6877003E+000	4.5776268E+001	4.6790150E+001	-7.8050720E+001	0.0000000E+000	0.0000000E+000	0.0000000E+000	7.8050720E+001	0.0000000E+000	0.0000000E+000	0.0000000E+000	-7.8050720E+001	0.0000000E+000	0.0000000E+000	0.0000000E+000	-1.1949283E+001	0.0000000E+000	0.0000000E+000	0.0000000E+000	1.1949283E+001	4.7251930E+000	7.8050720E+001	2.728841186517713E-007
7.1953535E+003	3.4368851E+002	5.5214287E+001	3.4809540E+002	-9.1267042E+000	02/16/2024 15:10:25.6236	1.7764421E-001	1.3930979E-003	4.0060517E-001	1.0079127E-002	1.000000000000000E+000	11	1.0181502E-002	2.9249170E-005	0	7.236031791250854E-006	2.8364065E-003	4.5567469E-004	2.8727758E-003	9.1267042E+000	1.0079124E+001	6.2738838E+001	6.3543297E+001	-8.0873299E+001	0.0000000E+000	0.0000000E+000	0.0000000E+000	8.0873299E+001	0.0000000E+000	0.0000000E+000	0.0000000E+000	-8.0873299E+001	0.0000000E+000	0.0000000E+000	0.0000000E+000	-9.1267042E+000	0.0000000E+000	0.0000000E+000	0.0000000E+000	9.1267042E+000	6.2246299E+000	8.0873299E+001	7.497544724253656E-008
5.1814517E+003	3.5031076E+002	4.5429157E+001	3.5324417E+002	-7.3890190E+000	02/16/2024 15:10:26.5505	1.7761438E-001	1.4877422E-003	6.7613590E-001	1.1182872E-002	1.000000000000000E+000	11	1.0212178E-002	2.8909686E-005	0	7.587726973580099E-006	2.8073948E-003	3.6406980E-004	2.8309030E-003	7.3890190E+000	1.1182877E+001	8.6232727E+001	8.6954819E+001	-8.2610977E+001	0.0000000E+000	0.0000000E+000	0.0000000E+000	8.2610977E+001	0.0000000E+000	0.0000000E+000	0.0000000E+000	-8.2610977E+001	0.0000000E+000	0.0000000E+000	0.0000000E+000	-7.3890190E+000	0.0000000E+000	0.0000000E+000	0.0000000E+000	7.3890190E+000	7.7111435E+000	8.2610977E+001	3.516951823292451E-007
3.7264229E+003	3.5322357E+002	3.6958385E+001	3.5515182E+002	-5.9732208E+000	02/16/2024 15:10:27.2483	1.7763473E-001	1.4606742E-003	1.1556199E+000	1.2514482E-002	1.000000000000000E+000	11	1.0680242E-002	3.0072328E-005	0	7.869547830660370E-006	2.8004097E-003	2.9301166E-004	2.8156971E-003	5.9732208E+000	1.2514483E+001	1.1960507E+002	1.2025800E+002	-8.4026779E+001	0.0000000E+000	0.0000000E+000	0.0000000E+000	8.4026779E+001	0.0000000E+000	0.0000000E+000	0.0000000E+000	-8.4026779E+001	0.0000000E+000	0.0000000E+000	0.0000000E+000	-5.9732208E+000	0.0000000E+000	0.0000000E+000	0.0000000E+000	5.9732208E+000	9.5573320E+000	8.4026779E+001	2.818208570802709E-007
2.6824250E+003	3.5633871E+002	3.1550558E+001	3.5773276E+002	-5.0598264E+000	02/16/2024 15:10:27.9463	1.7763698E-001	1.4347265E-003	1.8805525E+000	1.4627906E-002	1.000000000000000E+000	11	1.0966121E-002	3.0654508E-005	0	8.026337070037925E-006	2.7844897E-003	2.4654128E-004	2.7953829E-003	5.0598264E+000	1.4627916E+001	1.6521069E+002	1.6585701E+002	-8.4940170E+001	0.0000000E+000	0.0000000E+000	0.0000000E+000	8.4940170E+001	0.0000000E+000	0.0000000E+000	0.0000000E+000	-8.4940170E+001	0.0000000E+000	0.0000000E+000	0.0000000E+000	-5.0598264E+000	0.0000000E+000	0.0000000E+000	0.0000000E+000	5.0598264E+000	1.1294212E+001	8.4940170E+001	1.567892393775552E-007
1.9306176E+003	3.6063162E+002	2.8107197E+001	3.6172528E+002	-4.4565554E+000	02/16/2024 15:10:29.1421	1.7761959E-001	5.0744263E-004	2.9329615E+000	1.7708579E-002	1.000000000000000E+000	12	9.4542112E-003	2.6136440E-005	0	8.387543531816290E-006	2.7561705E-003	2.1481262E-004	2.7645289E-003	4.4565554E+000	1.7708590E+001	2.2721132E+002	2.2790036E+002	-8.5543442E+001	0.0000000E+000	0.0000000E+000	0.0000000E+000	8.5543442E+001	0.0000000E+000	0.0000000E+000	0.0000000E+000	-8.5543442E+001	0.0000000E+000	0.0000000E+000	0.0000000E+000	-4.4565554E+000	0.0000000E+000	0.0000000E+000	0.0000000E+000	4.4565554E+000	1.2830580E+001	8.5543442E+001	3.612064617783653E-007
1.3886667E+003	3.6569696E+002	2.6198769E+001	3.6663422E+002	-4.0977063E+000	02/16/2024 15:10:29.8404	1.7764874E-001	5.2042934E-004	4.3746285E+000	2.2337623E-002	1.000000000000000E+000	12	9.8612998E-003	2.6896834E-005	0	8.558913566711048E-006	2.7205416E-003	1.9490138E-004	2.7275141E-003	4.0977063E+000	2.2337645E+001	3.1180096E+002	3.1260010E+002	-8.5902290E+001	0.0000000E+000	0.0000000E+000	0.0000000E+000	8.5902290E+001	0.0000000E+000	0.0000000E+000	0.0000000E+000	-8.5902290E+001	0.0000000E+000	0.0000000E+000	0.0000000E+000	-4.0977063E+000	0.0000000E+000	0.0000000E+000	0.0000000E+000	4.0977063E+000	1.3958555E+001	8.5902290E+001	1.713700348947583E-007
1.0003202E+003	3.6570209E+002	2.7344526E+001	3.6672296E+002	-4.2762017E+000	02/16/2024 15:10:30.5371	1.7761338E-001	4.8462275E-004	5.8184953E+000	3.2350074E-002	1.000000000000000E+000	12	9.9984044E-003	2.7264190E-005	0	8.676918434196067E-006	2.7192631E-003	2.0332659E-004	2.7268541E-003	4.2762017E+000	3.2350060E+001	4.3264566E+002	4.3385342E+002	-8.5723801E+001	0.0000000E+000	0.0000000E+000	0.0000000E+000	8.5723801E+001	0.0000000E+000	0.0000000E+000	0.0000000E+000	-8.5723801E+001	0.0000000E+000	0.0000000E+000	0.0000000E+000	-4.2762017E+000	0.0000000E+000	0.0000000E+000	0.0000000E+000	4.2762017E+000	1.3373868E+001	8.5723801E+001	1.180048674850191E-007
7.1930957E+002	3.7022360E+002	2.8718527E+001	3.7133578E+002	-4.4355950E+000	02/16/2024 15:10:31.2353	1.7763238E-001	4.8089100E-004	7.7044587E+000	4.6082165E-002	1.000000000000000E+000	12	1.0130865E-002	2.7282222E-005	0	8.886838626967852E-006	2.6849147E-003	2.0827088E-004	2.6929805E-003	4.4355950E+000	4.6082134E+001	5.9406610E+002	5.9585071E+002	-8.5564407E+001	0.0000000E+000	0.0000000E+000	0.0000000E+000	8.5564407E+001	0.0000000E+000	0.0000000E+000	0.0000000E+000	-8.5564407E+001	0.0000000E+000	0.0000000E+000	0.0000000E+000	-4.4355950E+000	0.0000000E+000	0.0000000E+000	0.0000000E+000	4.4355950E+000	1.2891456E+001	8.5564407E+001	2.099201927717841E-007
5.1817603E+002	3.7371826E+002	3.3151154E+001	3.7518573E+002	-5.0692263E+000	02/16/2024 15:10:31.9349	1.7764559E-001	4.9550092E-004	9.2649736E+000	7.2335057E-002	1.000000000000000E+000	12	1.0175030E-002	2.7119981E-005	0	9.057465672467944E-006	2.6549215E-003	2.3550817E-004	2.6653465E-003	5.0692263E+000	7.2335091E+001	8.1544464E+002	8.1864667E+002	-8.4930771E+001	0.0000000E+000	0.0000000E+000	0.0000000E+000	8.4930771E+001	0.0000000E+000	0.0000000E+000	0.0000000E+000	-8.4930771E+001	0.0000000E+000	0.0000000E+000	0.0000000E+000	-5.0692263E+000	0.0000000E+000	0.0000000E+000	0.0000000E+000	5.0692263E+000	1.1273160E+001	8.4930771E+001	1.706270455000928E-007
3.7273376E+002	3.7812314E+002	3.6215870E+001	3.7985352E+002	-5.4709859E+000	02/16/2024 15:10:32.6344	1.7763945E-001	4.8204782E-004	1.1790236E+001	1.0717365E-001	1.000000000000000E+000	12	1.0192078E-002	2.6831600E-005	0	9.158453268785150E-006	2.6206013E-003	2.5099592E-004	2.6325937E-003	5.4709859E+000	1.0717365E+002	1.1189801E+003	1.1241008E+003	-8.4529015E+001	0.0000000E+000	0.0000000E+000	0.0000000E+000	8.4529015E+001	0.0000000E+000	0.0000000E+000	0.0000000E+000	-8.4529015E+001	0.0000000E+000	0.0000000E+000	0.0000000E+000	-5.4709859E+000	0.0000000E+000	0.0000000E+000	0.0000000E+000	5.4709859E+000	1.0440813E+001	8.4529015E+001	1.009875963172061E-007
2.6836835E+002	3.8393414E+002	4.2971455E+001	3.8633142E+002	-6.3861961E+000	02/16/2024 15:10:33.3354	1.7762822E-001	4.9061229E-004	1.3800944E+001	1.7074533E-001	1.000000000000000E+000	12	1.0210533E-002	2.6429465E-005	0	9.167601105462735E-006	2.5723891E-003	2.8791215E-004	2.5884511E-003	6.3861961E+000	1.7074545E+002	1.5255469E+003	1.5350724E+003	-8.3613800E+001	0.0000000E+000	0.0000000E+000	0.0000000E+000	8.3613800E+001	0.0000000E+000	0.0000000E+000	0.0000000E+000	-8.3613800E+001	0.0000000E+000	0.0000000E+000	0.0000000E+000	-6.3861961E+000	0.0000000E+000	0.0000000E+000	0.0000000E+000	6.3861961E+000	8.9346323E+000	8.3613800E+001	9.147836677584785E-009
1.9308463E+002	3.8954749E+002	5.0387180E+001	3.9279269E+002	-7.3701720E+000	02/16/2024 15:10:34.0381	1.7760204E-001	4.1556580E-004	1.6358835E+001	2.6919419E-001	1.000000000000000E+000	12	1.0205157E-002	2.5981026E-005	0	9.207199409813609E-006	2.5248386E-003	3.2658275E-004	2.5458722E-003	7.3701720E+000	2.6919412E+002	2.0811626E+003	2.0985002E+003	-8.2629829E+001	0.0000000E+000	0.0000000E+000	0.0000000E+000	8.2629829E+001	0.0000000E+000	0.0000000E+000	0.0000000E+000	-8.2629829E+001	0.0000000E+000	0.0000000E+000	0.0000000E+000	-7.3701720E+000	0.0000000E+000	0.0000000E+000	0.0000000E+000	7.3701720E+000	7.7310834E+000	8.2629829E+001	3.959830435087429E-008
1.3897710E+002	3.9481403E+002	6.0356239E+001	3.9940079E+002	-8.6916628E+000	02/16/2024 15:10:34.7386	1.7762685E-001	4.0116103E-004	1.8973818E+001	4.3329257E-001	1.000000000000000E+000	12	1.0181231E-002	2.5491265E-005	0	9.360489616266982E-006	2.4749972E-003	3.7835923E-004	2.5037506E-003	8.6916628E+000	4.3329276E+002	2.8343381E+003	2.8672661E+003	-8.1308334E+001	0.0000000E+000	0.0000000E+000	0.0000000E+000	8.1308334E+001	0.0000000E+000	0.0000000E+000	0.0000000E+000	-8.1308334E+001	0.0000000E+000	0.0000000E+000	0.0000000E+000	-8.6916628E+000	0.0000000E+000	0.0000000E+000	0.0000000E+000	8.6916628E+000	6.5413952E+000	8.1308334E+001	1.532902064533728E-007
1.0003201E+002	4.0307281E+002	7.3344452E+001	4.0969147E+002	-1.0312894E+001	02/16/2024 15:10:35.4361	1.7763059E-001	4.2028647E-004	2.1692713E+001	6.9523972E-001	1.000000000000000E+000	12	1.0196438E-002	2.4888090E-005	0	9.466270114546155E-006	2.4014285E-003	4.3697181E-004	2.4408612E-003	1.0312894E+001	6.9523993E+002	3.8207693E+003	3.8835083E+003	-7.9687103E+001	0.0000000E+000	0.0000000E+000	0.0000000E+000	7.9687103E+001	0.0000000E+000	0.0000000E+000	0.0000000E+000	-7.9687103E+001	0.0000000E+000	0.0000000E+000	0.0000000E+000	-1.0312894E+001	0.0000000E+000	0.0000000E+000	0.0000000E+000	1.0312894E+001	5.4956141E+000	7.9687103E+001	1.057804982791728E-007
7.1957260E+001	4.0813361E+002	9.1430115E+001	4.1824933E+002	-1.2626931E+001	02/16/2024 15:10:36.1177	1.7762411E-001	5.7237595E-004	2.4191135E+001	1.1560172E+000	1.000000000000000E+000	12	1.0196531E-002	2.4379073E-005	0	9.469462885835482E-006	2.3330918E-003	5.2265939E-004	2.3909183E-003	1.2626931E+001	1.1560170E+003	5.1603286E+003	5.2882290E+003	-7.7373070E+001	0.0000000E+000	0.0000000E+000	0.0000000E+000	7.7373070E+001	0.0000000E+000	0.0000000E+000	0.0000000E+000	-7.7373070E+001	0.0000000E+000	0.0000000E+000	0.0000000E+000	-1.2626931E+001	0.0000000E+000	0.0000000E+000	0.0000000E+000	1.2626931E+001	4.4638858E+000	7.7373070E+001	3.192771289326507E-009
5.1807030E+001	4.1765247E+002	1.0988006E+002	4.3186481E+002	-1.4739908E+001	02/16/2024 15:10:36.7922	1.7762975E-001	3.3266383E-004	2.7958418E+001	1.8099005E+000	1.000000000000000E+000	12	1.0169202E-002	2.3547189E-005	0	9.471368610655645E-006	2.2393367E-003	5.8914645E-004	2.3155394E-003	1.4739908E+001	1.8099001E+003	6.8794043E+003	7.1135044E+003	-7.5260094E+001	0.0000000E+000	0.0000000E+000	0.0000000E+000	7.5260094E+001	0.0000000E+000	0.0000000E+000	0.0000000E+000	-7.5260094E+001	0.0000000E+000	0.0000000E+000	0.0000000E+000	-1.4739908E+001	0.0000000E+000	0.0000000E+000	0.0000000E+000	1.4739908E+001	3.8009851E+000	7.5260094E+001	1.905724820163311E-009
3.7253067E+001	4.3473260E+002	1.4585953E+002	4.5854929E+002	-1.8547401E+001	02/16/2024 15:10:37.4530	1.7763178E-001	2.7929907E-004	2.9290264E+001	2.9636087E+000	1.000000000000000E+000	12	1.0189515E-002	2.2221198E-005	0	9.633719086515916E-006	2.0675224E-003	6.9368578E-004	2.1807908E-003	1.8547401E+001	2.9636089E+003	8.8330010E+003	9.3169141E+003	-7.1452599E+001	0.0000000E+000	0.0000000E+000	0.0000000E+000	7.1452599E+001	0.0000000E+000	0.0000000E+000	0.0000000E+000	-7.1452599E+001	0.0000000E+000	0.0000000E+000	0.0000000E+000	-1.8547401E+001	0.0000000E+000	0.0000000E+000	0.0000000E+000	1.8547401E+001	2.9804883E+000	7.1452599E+001	1.623504758602707E-007
2.6828640E+001	4.4588864E+002	1.8935852E+002	4.8443094E+002	-2.3009800E+001	02/16/2024 15:10:38.1095	1.7763634E-001	4.8451067E-004	3.1328283E+001	4.7867703E+000	1.000000000000000E+000	12	1.0191276E-002	2.1037624E-005	0	9.628937315955681E-006	1.9000396E-003	8.0690254E-004	2.0642777E-003	2.3009800E+001	4.7867695E+003	1.1271563E+004	1.2245869E+004	-6.6990204E+001	0.0000000E+000	0.0000000E+000	0.0000000E+000	6.6990204E+001	0.0000000E+000	0.0000000E+000	0.0000000E+000	-6.6990204E+001	0.0000000E+000	0.0000000E+000	0.0000000E+000	-2.3009800E+001	0.0000000E+000	0.0000000E+000	0.0000000E+000	2.3009800E+001	2.3547323E+000	6.6990204E+001	-4.781770560234456E-009
1.9313969E+001	4.7026926E+002	2.3819272E+002	5.2715173E+002	-2.6862343E+001	02/16/2024 15:10:38.8273	1.7758518E-001	5.3220295E-004	3.4595543E+001	7.0632701E+000	1.000000000000000E+000	12	1.0205688E-002	1.9360057E-005	0	9.701013426949986E-006	1.6922920E-003	8.5715071E-004	1.8969870E-003	2.6862343E+001	7.0632700E+003	1.3945174E+004	1.5631943E+004	-6.3137657E+001	0.0000000E+000	0.0000000E+000	0.0000000E+000	6.3137657E+001	0.0000000E+000	0.0000000E+000	0.0000000E+000	-6.3137657E+001	0.0000000E+000	0.0000000E+000	0.0000000E+000	-2.6862343E+001	0.0000000E+000	0.0000000E+000	0.0000000E+000	2.6862343E+001	1.9743226E+000	6.3137657E+001	7.207611099430452E-008
1.3884775E+001	4.9596777E+002	3.1409894E+002	5.8706232E+002	-3.2346291E+001	02/16/2024 15:10:39.5742	1.7763238E-001	3.9328675E-004	3.6493439E+001	1.0446705E+001	1.000000000000000E+000	12	1.0188914E-002	1.7355762E-005	0	9.741442337824740E-006	1.4390803E-003	9.1137696E-004	1.7033967E-003	3.2346291E+001	1.0446705E+004	1.6495531E+004	1.9525271E+004	-5.7653709E+001	0.0000000E+000	0.0000000E+000	0.0000000E+000	5.7653709E+001	0.0000000E+000	0.0000000E+000	0.0000000E+000	-5.7653709E+001	0.0000000E+000	0.0000000E+000	0.0000000E+000	-3.2346291E+001	0.0000000E+000	0.0000000E+000	0.0000000E+000	3.2346291E+001	1.5790176E+000	5.7653709E+001	4.042891087475434E-008
1.0003201E+001	5.3239667E+002	4.0437250E+002	6.6855316E+002	-3.7217846E+001	02/16/2024 15:10:40.2691	1.7763768E-001	3.9444354E-004	3.9345901E+001	1.4394310E+001	1.000000000000000E+000	12	1.0178311E-002	1.5224386E-005	0	9.768484408407201E-006	1.1911418E-003	9.0471067E-004	1.4957674E-003	3.7217846E+001	1.4394310E+004	1.8951541E+004	2.3798258E+004	-5.2782154E+001	0.0000000E+000	0.0000000E+000	0.0000000E+000	5.2782154E+001	0.0000000E+000	0.0000000E+000	0.0000000E+000	-5.2782154E+001	0.0000000E+000	0.0000000E+000	0.0000000E+000	-3.7217846E+001	0.0000000E+000	0.0000000E+000	0.0000000E+000	3.7217846E+001	1.3165996E+000	5.2782150E+001	2.704207058246078E-008
7.1938338E+000	5.8414569E+002	5.2452411E+002	7.8508069E+002	-4.1921738E+001	02/16/2024 15:10:40.7830	1.7765430E-001	3.1204536E-004	4.2178806E+001	1.8827671E+001	1.000000000000000E+000	12	1.0183828E-002	1.2971696E-005	0	9.818786737829365E-006	9.4774732E-004	8.5101428E-004	1.2737544E-003	4.1921738E+001	1.8827670E+004	2.0967773E+004	2.8180289E+004	-4.8078262E+001	0.0000000E+000	0.0000000E+000	0.0000000E+000	4.8078262E+001	0.0000000E+000	0.0000000E+000	0.0000000E+000	-4.8078262E+001	0.0000000E+000	0.0000000E+000	0.0000000E+000	-4.1921738E+001	0.0000000E+000	0.0000000E+000	0.0000000E+000	4.1921738E+001	1.1136680E+000	4.8078262E+001	5.030232942216424E-008
5.1807032E+000	6.5449713E+002	6.7637036E+002	9.4119250E+002	-4.5941589E+001	02/16/2024 15:10:41.7202	1.7764209E-001	4.1317687E-004	4.5419971E+001	2.3456276E+001	1.000000000000000E+000	20	1.0203991E-002	1.0841556E-005	0	9.905515685486635E-006	7.3884072E-004	7.6353271E-004	1.0624819E-003	4.5941589E+001	2.3456275E+004	2.2697721E+004	3.2640211E+004	-4.4058411E+001	0.0000000E+000	0.0000000E+000	0.0000000E+000	4.4058411E+001	0.0000000E+000	0.0000000E+000	0.0000000E+000	-4.4058411E+001	0.0000000E+000	0.0000000E+000	0.0000000E+000	-4.5941589E+001	0.0000000E+000	0.0000000E+000	0.0000000E+000	4.5941589E+001	9.6766084E-001	4.4058411E+001	8.672894765727007E-008
3.7273378E+000	7.4361548E+002	8.5611786E+002	1.1339761E+003	-4.9022743E+001	02/16/2024 15:10:42.6266	1.7763491E-001	2.6546209E-004	4.9875565E+001	2.8428055E+001	1.000000000000000E+000	20	1.0191314E-002	8.9872392E-006	0	9.912877623908470E-006	5.7828327E-004	6.6577236E-004	8.8185281E-004	4.9022743E+001	2.8428055E+004	2.4692326E+004	3.7654551E+004	-4.0977257E+001	0.0000000E+000	0.0000000E+000	0.0000000E+000	4.0977257E+001	0.0000000E+000	0.0000000E+000	0.0000000E+000	-4.0977257E+001	0.0000000E+000	0.0000000E+000	0.0000000E+000	-4.9022743E+001	0.0000000E+000	0.0000000E+000	0.0000000E+000	4.9022743E+001	8.6859006E-001	4.0977264E+001	7.361938421835031E-009
2.6847079E+000	8.6306519E+002	1.0958370E+003	1.3948979E+003	-5.1776550E+001	02/16/2024 15:10:43.8541	1.7764914E-001	3.2049627E-004	5.4097492E+001	3.3387524E+001	1.000000000000000E+000	20	1.0181575E-002	7.2991538E-006	0	1.016265731747543E-005	4.4356647E-004	5.6319800E-004	7.1689830E-004	5.1776550E+001	3.3387523E+004	2.6295523E+004	4.2499191E+004	-3.8223450E+001	0.0000000E+000	0.0000000E+000	0.0000000E+000	3.8223450E+001	0.0000000E+000	0.0000000E+000	0.0000000E+000	-3.8223450E+001	0.0000000E+000	0.0000000E+000	0.0000000E+000	-5.1776550E+001	0.0000000E+000	0.0000000E+000	0.0000000E+000	5.1776550E+001	7.8758532E-001	3.8223450E+001	2.497796935669552E-007
1.9299656E+000	1.0363047E+003	1.3892596E+003	1.7331964E+003	-5.3279263E+001	02/16/2024 15:10:45.5301	1.7764969E-001	3.0505576E-004	5.9359077E+001	3.8138046E+001	1.000000000000000E+000	20	1.0181181E-002	5.8742226E-006	0	1.027357094790321E-005	3.4497838E-004	4.6247459E-004	5.7696865E-004	5.3279263E+001	3.8138047E+004	2.8448703E+004	4.7579820E+004	-3.6720737E+001	0.0000000E+000	0.0000000E+000	0.0000000E+000	3.6720737E+001	0.0000000E+000	0.0000000E+000	0.0000000E+000	-3.6720737E+001	0.0000000E+000	0.0000000E+000	0.0000000E+000	-5.3279263E+001	0.0000000E+000	0.0000000E+000	0.0000000E+000	5.3279263E+001	7.4594027E-001	3.6720734E+001	1.109136304277810E-007
1.3881482E+000	1.2460948E+003	1.7296891E+003	2.1318013E+003	-5.4230438E+001	02/16/2024 15:10:47.8349	1.7763694E-001	2.6196655E-004	6.6285149E+001	4.3637405E+001	1.000000000000000E+000	20	1.0178604E-002	4.7746494E-006	0	1.030879022171201E-005	2.7419379E-004	3.8060511E-004	4.6908687E-004	5.4230438E+001	4.3637406E+004	3.1437063E+004	5.3782078E+004	-3.5769562E+001	0.0000000E+000	0.0000000E+000	0.0000000E+000	3.5769562E+001	0.0000000E+000	0.0000000E+000	0.0000000E+000	-3.5769562E+001	0.0000000E+000	0.0000000E+000	0.0000000E+000	-5.4230438E+001	0.0000000E+000	0.0000000E+000	0.0000000E+000	5.4230438E+001	7.2041553E-001	3.5769562E+001	3.521927380880723E-008
1.0000639E+000	1.5214041E+003	2.1247271E+003	2.6132615E+003	-5.4395565E+001	02/16/2024 15:10:52.0671	1.7764406E-001	2.6204920E-004	7.4901283E+001	4.9514202E+001	1.000000000000000E+000	21	1.0202194E-002	3.9040078E-006	0	1.058998849471742E-005	2.2278135E-004	3.1112682E-004	3.8266359E-004	5.4395565E+001	4.9514211E+004	3.5454488E+004	6.0898914E+004	-3.5604435E+001	0.0000000E+000	0.0000000E+000	0.0000000E+000	3.5604435E+001	0.0000000E+000	0.0000000E+000	0.0000000E+000	-3.5604435E+001	0.0000000E+000	0.0000000E+000	0.0000000E+000	-5.4395565E+001	0.0000000E+000	0.0000000E+000	0.0000000E+000	5.4395565E+001	7.1604681E-001	3.5604431E+001	2.811982730054049E-007
7.2017908E-001	1.8267191E+003	2.5996270E+003	3.1772571E+003	-5.4904858E+001	02/16/2024 15:10:56.4426	1.7764895E-001	2.6471502E-004	8.5009720E+001	5.6909653E+001	1.000000000000000E+000	21	1.0194233E-002	3.2085011E-006	0	1.104927809181726E-005	1.8095353E-004	2.5751724E-004	3.1473688E-004	5.4904858E+001	5.6909652E+004	3.9989566E+004	6.9554828E+004	-3.5095142E+001	0.0000000E+000	0.0000000E+000	0.0000000E+000	3.5095142E+001	0.0000000E+000	0.0000000E+000	0.0000000E+000	-3.5095142E+001	0.0000000E+000	0.0000000E+000	0.0000000E+000	-5.4904858E+001	0.0000000E+000	0.0000000E+000	0.0000000E+000	5.4904858E+001	7.0268512E-001	3.5095139E+001	4.592895970998443E-007
5.1752120E-001	2.1761338E+003	3.1946182E+003	3.8653777E+003	-5.5737801E+001	02/16/2024 15:11:02.5088	1.7765188E-001	2.3595164E-004	9.6266029E+001	6.5754745E+001	1.000000000000000E+000	21	1.0189997E-002	2.6362229E-006	0	1.162187450498790E-005	1.4564706E-004	2.1381347E-004	2.5870692E-004	5.5737801E+001	6.5754742E+004	4.4791309E+004	7.9560969E+004	-3.4262199E+001	0.0000000E+000	0.0000000E+000	0.0000000E+000	3.4262199E+001	0.0000000E+000	0.0000000E+000	0.0000000E+000	-3.4262199E+001	0.0000000E+000	0.0000000E+000	0.0000000E+000	-5.5737801E+001	0.0000000E+000	0.0000000E+000	0.0000000E+000	5.5737801E+001	6.8118745E-001	3.4262207E+001	5.725964131706363E-007
3.7244946E-001	2.5636079E+003	3.9723330E+003	4.7277388E+003	-5.7163185E+001	02/16/2024 15:11:10.9104	1.7764953E-001	2.1625453E-004	1.0757396E+002	7.5943657E+001	1.000000000000000E+000	21	1.0186438E-002	2.1546109E-006	0	1.222575295567990E-005	1.1469504E-004	1.7772097E-004	2.1151760E-004	5.7163185E+001	7.5943656E+004	4.9011438E+004	9.0385617E+004	-3.2836815E+001	0.0000000E+000	0.0000000E+000	0.0000000E+000	3.2836815E+001	0.0000000E+000	0.0000000E+000	0.0000000E+000	-3.2836815E+001	0.0000000E+000	0.0000000E+000	0.0000000E+000	-5.7163185E+001	0.0000000E+000	0.0000000E+000	0.0000000E+000	5.7163185E+001	6.4536583E-001	3.2836823E+001	6.038784506919969E-007
2.6843393E-001	2.9274495E+003	4.9861304E+003	5.7819941E+003	-5.9582016E+001	02/16/2024 15:11:22.5427	1.7764607E-001	1.9754191E-004	1.1891019E+002	8.8428253E+001	1.000000000000000E+000	21	1.0187509E-002	1.7619369E-006	0	1.279568793170456E-005	8.7565713E-005	1.4914486E-004	1.7295071E-004	5.9582016E+001	8.8428250E+004	5.1917863E+004	1.0254277E+005	-3.0417984E+001	0.0000000E+000	0.0000000E+000	0.0000000E+000	3.0417984E+001	0.0000000E+000	0.0000000E+000	0.0000000E+000	-3.0417984E+001	0.0000000E+000	0.0000000E+000	0.0000000E+000	-5.9582016E+001	0.0000000E+000	0.0000000E+000	0.0000000E+000	5.9582016E+001	5.8711851E-001	3.0417984E+001	5.699349760246597E-007
1.9284412E-001	3.4444504E+003	6.4100249E+003	7.2768579E+003	-6.1748474E+001	02/16/2024 15:11:38.7098	1.7765179E-001	1.8957928E-004	1.2875200E+002	9.9904633E+001	1.000000000000000E+000	21	1.0184171E-002	1.3995286E-006	0	1.340346650823813E-005	6.5047730E-005	1.2105198E-004	1.3742194E-004	6.1748474E+001	9.9904641E+004	5.3684129E+004	1.1341483E+005	-2.8251526E+001	0.0000000E+000	0.0000000E+000	0.0000000E+000	2.8251526E+001	0.0000000E+000	0.0000000E+000	0.0000000E+000	-2.8251526E+001	0.0000000E+000	0.0000000E+000	0.0000000E+000	-6.1748474E+001	0.0000000E+000	0.0000000E+000	0.0000000E+000	6.1748474E+001	5.3735369E-001	2.8251526E+001	6.077785765335695E-007
1.3893336E-001	4.0574978E+003	8.2467627E+003	9.1908857E+003	-6.3802307E+001	02/16/2024 15:12:01.1279	1.7765343E-001	1.6913163E-004	1.3890891E+002	1.1183619E+002	1.000000000000000E+000	21	1.0187237E-002	1.1084064E-006	0	1.431542723224053E-005	4.8033424E-005	9.7626733E-005	1.0880344E-004	6.3802307E+001	1.1183619E+005	5.5024633E+004	1.2463966E+005	-2.6197693E+001	0.0000000E+000	0.0000000E+000	0.0000000E+000	2.6197693E+001	0.0000000E+000	0.0000000E+000	0.0000000E+000	-2.6197693E+001	0.0000000E+000	0.0000000E+000	0.0000000E+000	-6.3802307E+001	0.0000000E+000	0.0000000E+000	0.0000000E+000	6.3802307E+001	4.9201098E-001	2.6197693E+001	9.119607240024074E-007
9.9904090E-002	4.8635796E+003	1.0810166E+004	1.1853864E+004	-6.5776642E+001	02/16/2024 15:12:32.2797	1.7764930E-001	1.5166857E-004	1.4736844E+002	1.2256017E+002	1.000000000000000E+000	21	1.0184884E-002	8.5920368E-007	0	1.562809489080367E-005	3.4612753E-005	7.6932964E-005	8.4360676E-005	6.5776642E+001	1.2256016E+005	5.5140789E+004	1.3439308E+005	-2.4223358E+001	0.0000000E+000	0.0000000E+000	0.0000000E+000	2.4223358E+001	0.0000000E+000	0.0000000E+000	0.0000000E+000	-2.4223358E+001	0.0000000E+000	0.0000000E+000	0.0000000E+000	-6.5776642E+001	0.0000000E+000	0.0000000E+000	0.0000000E+000	6.5776642E+001	4.4990796E-001	2.4223358E+001	1.312667658563138E-006