EC-Lab ASCII FILE
Nb header lines : 65                          

Potentio Electrochemical Impedance Spectroscopy

Run on channel : 1 (SN 6813)
User : 
CE vs. WE compliance from -10 V to 10 V
Electrode connection : standard
Potential control : Ewe
Ewe ctrl range : min = -1.00 V, max = 1.00 V
Safety Limits :
	Do not start on E overload
Acquisition started on : 02/16/2024 15:15:46.510
Technique started on : 02/16/2024 15:15:47.516
Loaded Setting File :  NONE
Saved on :
	File : 09 2EL413 RVC EtOH TBA-BF4_(under Ar) solidstateref+faradaiccage EIS 0-3.mpr
	Directory : C:\Users\VSP\Documents\EC-Lab\Data\Louis\2024 02 16\
	Host : 10.10.11.222
Device : VSP (SN 0301)
Address : USB
EC-Lab for windows v11.50 (software)
Internet server v11.50 (firmware)
Command interpretor v11.50 (firmware)
Electrode material : 
Initial state : 
Electrolyte : 
Comments : 
Current amplifier : Low Current
Electrode surface area : 0.001 cm²
Characteristic mass : 0.001 g
Equivalent Weight : 0.000 g/eq.
Density : 0.000 g/cm3
Volume (V) : 0.001 cm³
Cycle Definition : Charge/Discharge alternance
Mode                Single sine         
E (V)               0.3000              
vs.                 Eoc                 
tE (h:m:s)          0:00:0.0000         
record              0                   
dI                  0.000               
unit dI             mA                  
dt (s)              0.000               
fi                  1.000               
unit fi             MHz                 
ff                  0.100               
unit ff             Hz                  
Nd                  50                  
Points              from fi to ff       
spacing             Logarithmic         
Va (mV)             10.0                
pw                  0.10                
Na                  3                   
corr                0                   
E range min (V)     -1.000              
E range max (V)     1.000               
I Range             Auto                
Bandwidth           4                   
nc cycles           0                   
goto Ns'            0                   
nr cycles           0                   
inc. cycle          0                   

freq/Hz	Re(Z)/Ohm	-Im(Z)/Ohm	|Z|/Ohm	Phase(Z)/deg	time/s	<Ewe>/V	<I>/mA	Cs/µF	Cp/µF	cycle number	I Range	|Ewe|/V	|I|/A	Ns	(Q-Qo)/mA.h	Re(Y)/Ohm-1	Im(Y)/Ohm-1	|Y|/Ohm-1	Phase(Y)/deg	Re(C)/nF	Im(C)/nF	|C|/nF	Phase(C)/deg	Re(M)	Im(M)	|M|	Phase(M)/deg	Re(Permittivity)	Im(Permittivity)	|Permittivity|	Phase(Permittivity)/deg	Re(Resistivity)/Ohm.cm	Im(Resistivity)/Ohm.cm	|Resistivity|/Ohm.cm	Phase(Resistivity)/deg	Re(Conductivity)/mS/cm	Im(Conductivity)/mS/cm	|Conductivity|/mS/cm	Phase(Conductivity)/deg	Tan(Delta)	Loss Angle(Delta)/deg	dq/mA.h	
1.0000186E+006	-3.0747717E+002	-1.1734174E+002	3.2910681E+002	1.5911177E+002	02/16/2024 15:15:47.5157	5.7645565E-001	1.1050114E-001	-1.3563117E-003	-1.7242128E-004	1.000000000000000E+000	12	1.1627325E-003	3.5329942E-006	0	2.096240488095888E-005	-2.8388284E-003	-1.0833750E-003	3.0385272E-003	-1.5911177E+002	-1.7242126E-001	-4.5180514E-001	4.8358762E-001	1.1088823E+002	0.0000000E+000	0.0000000E+000	0.0000000E+000	-1.1088823E+002	0.0000000E+000	0.0000000E+000	0.0000000E+000	1.1088823E+002	0.0000000E+000	0.0000000E+000	0.0000000E+000	1.5911177E+002	0.0000000E+000	0.0000000E+000	0.0000000E+000	-1.5911177E+002	2.6203563E+000	6.9111771E+001	2.096240488095888E-005
7.1968713E+005	-2.2284891E+002	3.7360916E+002	4.3502350E+002	-1.2081506E+002	02/16/2024 15:15:48.0947	5.7692790E-001	1.0586979E-001	5.9191434E-004	4.3658467E-004	1.000000000000000E+000	12	1.2867278E-003	2.9578352E-006	0	3.789804378617797E-005	-1.1775655E-003	1.9742043E-003	2.2987265E-003	1.2081506E+002	4.3658471E-001	-2.6041231E-001	5.0835103E-001	3.0815063E+001	0.0000000E+000	0.0000000E+000	0.0000000E+000	-3.0815063E+001	0.0000000E+000	0.0000000E+000	0.0000000E+000	3.0815063E+001	0.0000000E+000	0.0000000E+000	0.0000000E+000	-1.2081506E+002	0.0000000E+000	0.0000000E+000	0.0000000E+000	1.2081506E+002	5.9647602E-001	3.0815063E+001	1.693563890521909E-005
5.1794463E+005	4.7725468E+001	1.5922330E+002	1.6622208E+002	-7.3314468E+001	02/16/2024 15:15:49.6567	5.7711506E-001	1.0014144E-001	1.9298795E-003	1.7707858E-003	1.000000000000000E+000	11	2.6345423E-003	1.5849533E-005	0	8.054980950899901E-005	1.7273196E-003	5.7627428E-003	6.0160481E-003	7.3314468E+001	1.7707858E+000	5.3077382E-001	1.8486220E+000	-1.6685532E+001	0.0000000E+000	0.0000000E+000	0.0000000E+000	1.6685532E+001	0.0000000E+000	0.0000000E+000	0.0000000E+000	-1.6685532E+001	0.0000000E+000	0.0000000E+000	0.0000000E+000	-7.3314468E+001	0.0000000E+000	0.0000000E+000	0.0000000E+000	7.3314468E+001	2.9973921E-001	1.6685532E+001	4.265176572282104E-005
3.7276388E+005	9.1917427E+001	1.2632819E+002	1.5622940E+002	-5.3960060E+001	02/16/2024 15:15:50.2347	5.7707512E-001	9.8686866E-002	3.3797615E-003	2.2098413E-003	1.000000000000000E+000	11	4.2315368E-003	2.7085407E-005	0	9.618930994414404E-005	3.7659307E-003	5.1757679E-003	6.4008441E-003	5.3960060E+001	2.2098413E+000	1.6078984E+000	2.7328987E+000	-3.6039940E+001	0.0000000E+000	0.0000000E+000	0.0000000E+000	3.6039940E+001	0.0000000E+000	0.0000000E+000	0.0000000E+000	-3.6039940E+001	0.0000000E+000	0.0000000E+000	0.0000000E+000	-5.3960060E+001	0.0000000E+000	0.0000000E+000	0.0000000E+000	5.3960060E+001	7.2760820E-001	3.6039948E+001	1.563950043514503E-005
2.6826938E+005	1.0219378E+002	1.0748049E+002	1.4830922E+002	-4.6444347E+001	02/16/2024 15:15:50.8137	5.7696795E-001	9.7438380E-002	5.5197496E-003	2.8989611E-003	1.000000000000000E+000	11	6.2538576E-003	4.2167692E-005	0	1.116386817933728E-004	4.6460959E-003	4.8864488E-003	6.7426693E-003	4.6444347E+001	2.8989613E+000	2.7563679E+000	4.0001926E+000	-4.3555653E+001	0.0000000E+000	0.0000000E+000	0.0000000E+000	4.3555653E+001	0.0000000E+000	0.0000000E+000	0.0000000E+000	-4.3555653E+001	0.0000000E+000	0.0000000E+000	0.0000000E+000	-4.6444347E+001	0.0000000E+000	0.0000000E+000	0.0000000E+000	4.6444347E+001	9.5081234E-001	4.3555649E+001	1.544937184922876E-005
1.9306711E+005	1.1270872E+002	1.0191691E+002	1.5195497E+002	-4.2121475E+001	02/16/2024 15:15:51.2447	5.7693672E-001	9.6484289E-002	8.0884555E-003	3.6385492E-003	1.000000000000000E+000	11	9.4987284E-003	6.2510153E-005	0	1.229433427397303E-004	4.8812125E-003	4.4138380E-003	6.5808967E-003	4.2121475E+001	3.6385493E+000	4.0238295E+000	5.4249649E+000	-4.7878525E+001	0.0000000E+000	0.0000000E+000	0.0000000E+000	4.7878525E+001	0.0000000E+000	0.0000000E+000	0.0000000E+000	-4.7878525E+001	0.0000000E+000	0.0000000E+000	0.0000000E+000	-4.2121475E+001	0.0000000E+000	0.0000000E+000	0.0000000E+000	4.2121475E+001	1.1058884E+000	4.7878525E+001	1.130466094635753E-005
1.3894559E+005	1.2723694E+002	1.0218921E+002	1.6319275E+002	-3.8769375E+001	02/16/2024 15:15:51.8237	5.7693923E-001	9.5198654E-002	1.1209088E-002	4.3952004E-003	1.000000000000000E+000	11	1.0421537E-002	6.3860294E-005	0	1.378401304942882E-004	4.7776187E-003	3.8371014E-003	6.1277230E-003	3.8769375E+001	4.3951998E+000	5.4725137E+000	7.0189877E+000	-5.1230625E+001	0.0000000E+000	0.0000000E+000	0.0000000E+000	5.1230625E+001	0.0000000E+000	0.0000000E+000	0.0000000E+000	-5.1230625E+001	0.0000000E+000	0.0000000E+000	0.0000000E+000	-3.8769375E+001	0.0000000E+000	0.0000000E+000	0.0000000E+000	3.8769375E+001	1.2451113E+000	5.1230621E+001	1.489678775455790E-005
1.0000371E+005	1.4295139E+002	1.0787793E+002	1.7908865E+002	-3.7039944E+001	02/16/2024 15:15:52.4027	5.7697040E-001	9.3915455E-002	1.4752696E-002	5.3530396E-003	1.000000000000000E+000	11	1.0648076E-002	5.9457012E-005	0	1.533479477465646E-004	4.4570984E-003	3.3635388E-003	5.5838265E-003	3.7039944E+001	5.3530397E+000	7.0934291E+000	8.8866062E+000	-5.2960056E+001	0.0000000E+000	0.0000000E+000	0.0000000E+000	5.2960056E+001	0.0000000E+000	0.0000000E+000	0.0000000E+000	-5.2960056E+001	0.0000000E+000	0.0000000E+000	0.0000000E+000	-3.7039944E+001	0.0000000E+000	0.0000000E+000	0.0000000E+000	3.7039944E+001	1.3251216E+000	5.2960052E+001	1.550781725227638E-005
7.1964070E+004	1.6343465E+002	1.1416959E+002	1.9936293E+002	-3.4936771E+001	02/16/2024 15:15:52.9817	5.7698029E-001	9.3110695E-002	1.9371085E-002	6.3528125E-003	1.000000000000000E+000	11	1.0630113E-002	5.3320411E-005	0	1.684872654253858E-004	4.1120206E-003	2.8725106E-003	5.0159777E-003	3.4936771E+001	6.3528128E+000	9.0941000E+000	1.1093281E+001	-5.5063229E+001	0.0000000E+000	0.0000000E+000	0.0000000E+000	5.5063229E+001	0.0000000E+000	0.0000000E+000	0.0000000E+000	-5.5063229E+001	0.0000000E+000	0.0000000E+000	0.0000000E+000	-3.4936771E+001	0.0000000E+000	0.0000000E+000	0.0000000E+000	3.4936771E+001	1.4315077E+000	5.5063232E+001	1.513931767882119E-005
5.1792605E+004	1.9199948E+002	1.2441673E+002	2.2878664E+002	-3.2943462E+001	02/16/2024 15:15:53.5607	5.7700002E-001	9.2655398E-002	2.4698673E-002	7.3041525E-003	1.000000000000000E+000	11	1.0752772E-002	4.6999125E-005	0	1.827646510622047E-004	3.6680794E-003	2.3769359E-003	4.3708845E-003	3.2943462E+001	7.3041530E+000	1.1271745E+001	1.3431414E+001	-5.7056538E+001	0.0000000E+000	0.0000000E+000	0.0000000E+000	5.7056538E+001	0.0000000E+000	0.0000000E+000	0.0000000E+000	-5.7056538E+001	0.0000000E+000	0.0000000E+000	0.0000000E+000	-3.2943462E+001	0.0000000E+000	0.0000000E+000	0.0000000E+000	3.2943462E+001	1.5431967E+000	5.7056534E+001	1.427738563681890E-005
3.7271750E+004	2.2543471E+002	1.3037381E+002	2.6041916E+002	-3.0041729E+001	02/16/2024 15:15:54.1397	5.7701850E-001	9.2061579E-002	3.2752916E-002	8.2088979E-003	1.000000000000000E+000	11	1.0712627E-002	4.1136096E-005	0	1.969443992235982E-004	3.3241066E-003	1.9224031E-003	3.8399633E-003	3.0041729E+001	8.2088976E+000	1.4194344E+001	1.6397116E+001	-5.9958271E+001	0.0000000E+000	0.0000000E+000	0.0000000E+000	5.9958271E+001	0.0000000E+000	0.0000000E+000	0.0000000E+000	-5.9958271E+001	0.0000000E+000	0.0000000E+000	0.0000000E+000	-3.0041729E+001	0.0000000E+000	0.0000000E+000	0.0000000E+000	3.0041729E+001	1.7291411E+000	5.9958267E+001	1.417974816139356E-005
2.6824154E+004	2.6323206E+002	1.2642216E+002	2.9201657E+002	-2.5653524E+001	02/16/2024 15:15:54.7187	5.7700568E-001	9.0992682E-002	4.6932198E-002	8.7963464E-003	1.000000000000000E+000	11	1.0686252E-002	3.6594676E-005	0	2.113130978386321E-004	3.0869085E-003	1.4825461E-003	3.4244631E-003	2.5653524E+001	8.7963467E+000	1.8315462E+001	2.0318264E+001	-6.4346474E+001	0.0000000E+000	0.0000000E+000	0.0000000E+000	6.4346474E+001	0.0000000E+000	0.0000000E+000	0.0000000E+000	-6.4346474E+001	0.0000000E+000	0.0000000E+000	0.0000000E+000	-2.5653524E+001	0.0000000E+000	0.0000000E+000	0.0000000E+000	2.5653524E+001	2.0821671E+000	6.4346474E+001	1.436869861503389E-005
1.9308566E+004	2.9794571E+002	1.1407401E+002	3.1903687E+002	-2.0950266E+001	02/16/2024 15:15:55.2987	5.7702297E-001	9.0058744E-002	7.2257578E-002	9.2379395E-003	1.000000000000000E+000	11	1.0620926E-002	3.3290591E-005	0	2.252206804514175E-004	2.9272202E-003	1.1207402E-003	3.1344341E-003	2.0950266E+001	9.2379379E+000	2.4128233E+001	2.5836237E+001	-6.9049736E+001	0.0000000E+000	0.0000000E+000	0.0000000E+000	6.9049736E+001	0.0000000E+000	0.0000000E+000	0.0000000E+000	-6.9049736E+001	0.0000000E+000	0.0000000E+000	0.0000000E+000	-2.0950266E+001	0.0000000E+000	0.0000000E+000	0.0000000E+000	2.0950266E+001	2.6118631E+000	6.9049736E+001	1.390758261278540E-005
1.3899199E+004	3.2353510E+002	9.6669815E+001	3.3766849E+002	-1.6635744E+001	02/16/2024 15:15:55.8777	5.7702559E-001	8.9627147E-002	1.1845120E-001	9.7082332E-003	1.000000000000000E+000	11	1.0396970E-002	3.0790463E-005	0	2.393875543476105E-004	2.8375292E-003	8.4783201E-004	2.9614845E-003	1.6635744E+001	9.7082310E+000	3.2491570E+001	3.3910938E+001	-7.3364258E+001	0.0000000E+000	0.0000000E+000	0.0000000E+000	7.3364258E+001	0.0000000E+000	0.0000000E+000	0.0000000E+000	-7.3364258E+001	0.0000000E+000	0.0000000E+000	0.0000000E+000	-1.6635744E+001	0.0000000E+000	0.0000000E+000	0.0000000E+000	1.6635744E+001	3.3468058E+000	7.3364258E+001	1.416687389619296E-005
1.0002226E+004	3.4181989E+002	7.7775299E+001	3.5055646E+002	-1.2818445E+001	02/16/2024 15:15:56.4567	5.7705140E-001	8.9456528E-002	2.0458877E-001	1.0070458E-002	1.000000000000000E+000	11	1.0331093E-002	2.9470555E-005	0	2.535590727573273E-004	2.7815148E-003	6.3288637E-004	2.8526075E-003	1.2818445E+001	1.0070457E+001	4.4259331E+001	4.5390556E+001	-7.7181557E+001	0.0000000E+000	0.0000000E+000	0.0000000E+000	7.7181557E+001	0.0000000E+000	0.0000000E+000	0.0000000E+000	-7.7181557E+001	0.0000000E+000	0.0000000E+000	0.0000000E+000	-1.2818445E+001	0.0000000E+000	0.0000000E+000	0.0000000E+000	1.2818445E+001	4.3949671E+000	7.7181557E+001	1.417151840971684E-005
7.1953535E+003	3.5401477E+002	6.0038822E+001	3.5906979E+002	-9.6254416E+000	02/16/2024 15:15:57.1666	5.7707822E-001	8.8603050E-002	3.6841375E-001	1.0300123E-002	1.000000000000000E+000	11	1.0227788E-002	2.8484123E-005	0	2.708617696403041E-004	2.7457667E-003	4.6566589E-004	2.7849739E-003	9.6254416E+000	1.0300124E+001	6.0733963E+001	6.1601192E+001	-8.0374557E+001	0.0000000E+000	0.0000000E+000	0.0000000E+000	8.0374557E+001	0.0000000E+000	0.0000000E+000	0.0000000E+000	-8.0374557E+001	0.0000000E+000	0.0000000E+000	0.0000000E+000	-9.6254416E+000	0.0000000E+000	0.0000000E+000	0.0000000E+000	9.6254416E+000	5.8964310E+000	8.0374557E+001	1.730269688297674E-005
5.1814517E+003	3.5860907E+002	4.8250851E+001	3.6184058E+002	-7.6631246E+000	02/16/2024 15:15:58.0935	5.7704204E-001	8.7781303E-002	6.3659567E-001	1.1319810E-002	1.000000000000000E+000	11	1.0043688E-002	2.7757218E-005	0	2.932246974653693E-004	2.7389666E-003	3.6852795E-004	2.7636481E-003	7.6631246E+000	1.1319809E+001	8.4130875E+001	8.4889000E+001	-8.2336876E+001	0.0000000E+000	0.0000000E+000	0.0000000E+000	8.2336876E+001	0.0000000E+000	0.0000000E+000	0.0000000E+000	-8.2336876E+001	0.0000000E+000	0.0000000E+000	0.0000000E+000	-7.6631246E+000	0.0000000E+000	0.0000000E+000	0.0000000E+000	7.6631246E+000	7.4321814E+000	8.2336876E+001	2.236292782506520E-005
3.7264229E+003	3.6489844E+002	3.8960194E+001	3.6697244E+002	-6.0943804E+000	02/16/2024 15:15:58.7913	5.7701963E-001	8.7195337E-002	1.0962431E+000	1.2356123E-002	1.000000000000000E+000	11	1.0559064E-002	2.8773453E-005	0	3.099198876414092E-004	2.7095994E-003	2.8930386E-004	2.7250003E-003	6.0943804E+000	1.2356129E+001	1.1572658E+002	1.1638434E+002	-8.3905617E+001	0.0000000E+000	0.0000000E+000	0.0000000E+000	8.3905617E+001	0.0000000E+000	0.0000000E+000	0.0000000E+000	-8.3905617E+001	0.0000000E+000	0.0000000E+000	0.0000000E+000	-6.0943804E+000	0.0000000E+000	0.0000000E+000	0.0000000E+000	6.0943804E+000	9.3659296E+000	8.3905617E+001	1.669519017603996E-005
2.6824250E+003	3.6912540E+002	3.2651840E+001	3.7056674E+002	-5.0550728E+000	02/16/2024 15:15:59.7543	5.7703859E-001	8.5561231E-002	1.8171253E+000	1.4108061E-002	1.000000000000000E+000	12	9.7174346E-003	2.6223170E-005	0	3.321676846415066E-004	2.6880731E-003	2.3777971E-004	2.6985693E-003	5.0550728E+000	1.4108050E+001	1.5949007E+002	1.6011282E+002	-8.4944931E+001	0.0000000E+000	0.0000000E+000	0.0000000E+000	8.4944931E+001	0.0000000E+000	0.0000000E+000	0.0000000E+000	-8.4944931E+001	0.0000000E+000	0.0000000E+000	0.0000000E+000	-5.0550728E+000	0.0000000E+000	0.0000000E+000	0.0000000E+000	5.0550728E+000	1.1304888E+001	8.4944931E+001	2.224779700009741E-005
1.9306176E+003	3.7377194E+002	2.7348019E+001	3.7477109E+002	-4.1847410E+000	02/16/2024 15:16:00.4511	5.7701296E-001	8.5107163E-002	3.0143802E+000	1.6051574E-002	1.000000000000000E+000	12	1.0416221E-002	2.7793556E-005	0	3.483627364503861E-004	2.6611816E-003	1.9471244E-004	2.6682955E-003	4.1847410E+000	1.6051561E+001	2.1938071E+002	2.1996715E+002	-8.5815262E+001	0.0000000E+000	0.0000000E+000	0.0000000E+000	8.5815262E+001	0.0000000E+000	0.0000000E+000	0.0000000E+000	-8.5815262E+001	0.0000000E+000	0.0000000E+000	0.0000000E+000	-4.1847410E+000	0.0000000E+000	0.0000000E+000	0.0000000E+000	4.1847410E+000	1.3667240E+001	8.5815262E+001	1.619505180887950E-005
1.3886667E+003	3.7427322E+002	2.5875763E+001	3.7516663E+002	-3.9549091E+000	02/16/2024 15:16:01.1494	5.7703745E-001	8.4661387E-002	4.4292369E+000	2.1070112E-002	1.000000000000000E+000	12	1.0743122E-002	2.8635601E-005	0	3.645223962464596E-004	2.6591348E-003	1.8384200E-004	2.6654822E-003	3.9549091E+000	2.1070118E+001	3.0476315E+002	3.0549063E+002	-8.6045090E+001	0.0000000E+000	0.0000000E+000	0.0000000E+000	8.6045090E+001	0.0000000E+000	0.0000000E+000	0.0000000E+000	-8.6045090E+001	0.0000000E+000	0.0000000E+000	0.0000000E+000	-3.9549091E+000	0.0000000E+000	0.0000000E+000	0.0000000E+000	3.9549091E+000	1.4464239E+001	8.6045090E+001	1.615965979607348E-005
1.0003202E+003	3.7701608E+002	2.4117844E+001	3.7778671E+002	-3.6602426E+000	02/16/2024 15:16:01.8461	5.7701391E-001	8.4231257E-002	6.5969415E+000	2.6886001E-002	1.000000000000000E+000	12	1.0969625E-002	2.9036555E-005	0	3.807799607415509E-004	2.6415968E-003	1.6898381E-004	2.6469962E-003	3.6602426E+000	2.6885983E+001	4.2028860E+002	4.2114767E+002	-8.6339760E+001	0.0000000E+000	0.0000000E+000	0.0000000E+000	8.6339760E+001	0.0000000E+000	0.0000000E+000	0.0000000E+000	-8.6339760E+001	0.0000000E+000	0.0000000E+000	0.0000000E+000	-3.6602426E+000	0.0000000E+000	0.0000000E+000	0.0000000E+000	3.6602426E+000	1.5632247E+001	8.6339760E+001	1.625756449509129E-005
7.1930957E+002	3.7963324E+002	2.4968634E+001	3.8045346E+002	-3.7629471E+000	02/16/2024 15:16:02.7783	5.7703739E-001	8.3693467E-002	8.8615465E+000	3.8167700E-002	1.000000000000000E+000	12	1.0092054E-002	2.6526381E-005	0	4.023985441273269E-004	2.6227757E-003	1.7250102E-004	2.6284424E-003	3.7629471E+000	3.8167698E+001	5.8031720E+002	5.8157098E+002	-8.6237053E+001	0.0000000E+000	0.0000000E+000	0.0000000E+000	8.6237053E+001	0.0000000E+000	0.0000000E+000	0.0000000E+000	-8.6237053E+001	0.0000000E+000	0.0000000E+000	0.0000000E+000	-3.7629471E+000	0.0000000E+000	0.0000000E+000	0.0000000E+000	3.7629471E+000	1.5204406E+001	8.6237053E+001	2.161858338577599E-005
5.1817603E+002	3.8205963E+002	2.7473524E+001	3.8304614E+002	-4.1130023E+000	02/16/2024 15:16:03.4778	5.7701886E-001	8.3302259E-002	1.1179657E+001	5.7511542E-002	1.000000000000000E+000	12	1.0132749E-002	2.6453075E-005	0	4.184618990133766E-004	2.6039279E-003	1.8724584E-004	2.6106515E-003	4.1130023E+000	5.7511490E+001	7.9978223E+002	8.0184735E+002	-8.5887001E+001	0.0000000E+000	0.0000000E+000	0.0000000E+000	8.5887001E+001	0.0000000E+000	0.0000000E+000	0.0000000E+000	-8.5887001E+001	0.0000000E+000	0.0000000E+000	0.0000000E+000	-4.1130023E+000	0.0000000E+000	0.0000000E+000	0.0000000E+000	4.1130023E+000	1.3906466E+001	8.5887001E+001	1.606335488604966E-005
3.7273376E+002	3.8643332E+002	3.1440107E+001	3.8771017E+002	-4.6513238E+000	02/16/2024 15:16:04.1773	5.7701039E-001	8.2963504E-002	1.3581177E+001	8.9308135E-002	1.000000000000000E+000	12	1.0179921E-002	2.6256523E-005	0	4.343427346759773E-004	2.5707518E-003	2.0915565E-004	2.5792462E-003	4.6513238E+000	8.9308083E+001	1.0976946E+003	1.1013217E+003	-8.5348679E+001	0.0000000E+000	0.0000000E+000	0.0000000E+000	8.5348679E+001	0.0000000E+000	0.0000000E+000	0.0000000E+000	-8.5348679E+001	0.0000000E+000	0.0000000E+000	0.0000000E+000	-4.6513238E+000	0.0000000E+000	0.0000000E+000	0.0000000E+000	4.6513238E+000	1.2291094E+001	8.5348679E+001	1.588083566260077E-005
2.6836835E+002	3.9134659E+002	3.7456734E+001	3.9313504E+002	-5.4672642E+000	02/16/2024 15:16:04.8784	5.7703710E-001	8.2597844E-002	1.5832844E+001	1.4372598E-001	1.000000000000000E+000	12	1.0194065E-002	2.5930187E-005	0	4.503673780207440E-004	2.5320835E-003	2.4235189E-004	2.5436552E-003	5.4672642E+000	1.4372592E+002	1.5016436E+003	1.5085061E+003	-8.4532738E+001	0.0000000E+000	0.0000000E+000	0.0000000E+000	8.4532738E+001	0.0000000E+000	0.0000000E+000	0.0000000E+000	-8.4532738E+001	0.0000000E+000	0.0000000E+000	0.0000000E+000	-5.4672642E+000	0.0000000E+000	0.0000000E+000	0.0000000E+000	5.4672642E+000	1.0447964E+001	8.4532738E+001	1.602464334476663E-005
1.9308463E+002	3.9887842E+002	3.5178112E+001	4.0042664E+002	-5.0400224E+000	02/16/2024 15:16:05.5812	5.7700086E-001	8.2174614E-002	2.3431490E+001	1.8084189E-001	1.000000000000000E+000	12	1.0221921E-002	2.5527575E-005	0	4.661942298765389E-004	2.4876806E-003	2.1939496E-004	2.4973364E-003	5.0400224E+000	1.8084196E+002	2.0505344E+003	2.0584934E+003	-8.4959976E+001	0.0000000E+000	0.0000000E+000	0.0000000E+000	8.4959976E+001	0.0000000E+000	0.0000000E+000	0.0000000E+000	-8.4959976E+001	0.0000000E+000	0.0000000E+000	0.0000000E+000	-5.0400224E+000	0.0000000E+000	0.0000000E+000	0.0000000E+000	5.0400224E+000	1.1338824E+001	8.4959976E+001	1.582685185579492E-005
1.3897710E+002	4.0258652E+002	5.3817966E+001	4.0616779E+002	-7.6141863E+000	02/16/2024 15:16:06.2816	5.7700974E-001	8.1853941E-002	2.1278921E+001	3.7358826E-001	1.000000000000000E+000	12	1.0195256E-002	2.5101095E-005	0	4.820034966010555E-004	2.4403282E-003	3.2622431E-004	2.4620367E-003	7.6141863E+000	3.7358841E+002	2.7946355E+003	2.8194956E+003	-8.2385811E+001	0.0000000E+000	0.0000000E+000	0.0000000E+000	8.2385811E+001	0.0000000E+000	0.0000000E+000	0.0000000E+000	-8.2385811E+001	0.0000000E+000	0.0000000E+000	0.0000000E+000	-7.6141863E+000	0.0000000E+000	0.0000000E+000	0.0000000E+000	7.6141863E+000	7.4805226E+000	8.2385811E+001	1.580926672451664E-005
1.0003201E+002	4.0969168E+002	6.5279915E+001	4.1485989E+002	-9.0533533E+000	02/16/2024 15:16:06.9791	5.7704216E-001	8.1587449E-002	2.4372583E+001	6.0347295E-001	1.000000000000000E+000	12	1.0179635E-002	2.4537525E-005	0	4.976799409142728E-004	2.3804235E-003	3.7929462E-004	2.4104523E-003	9.0533533E+000	6.0347284E+002	3.7873491E+003	3.8351262E+003	-8.0946648E+001	0.0000000E+000	0.0000000E+000	0.0000000E+000	8.0946648E+001	0.0000000E+000	0.0000000E+000	0.0000000E+000	-8.0946648E+001	0.0000000E+000	0.0000000E+000	0.0000000E+000	-9.0533533E+000	0.0000000E+000	0.0000000E+000	0.0000000E+000	9.0533533E+000	6.2759223E+000	8.0946648E+001	1.567644431321730E-005
7.1957260E+001	4.2355255E+002	8.1856598E+001	4.3138992E+002	-1.0938244E+001	02/16/2024 15:16:07.6607	5.7700902E-001	8.1416249E-002	2.7020405E+001	9.7287989E-001	1.000000000000000E+000	12	1.0206454E-002	2.3659462E-005	0	5.129970592388224E-004	2.2759740E-003	4.3985923E-004	2.3180884E-003	1.0938244E+001	9.7288025E+002	5.0339956E+003	5.1271440E+003	-7.9061752E+001	0.0000000E+000	0.0000000E+000	0.0000000E+000	7.9061752E+001	0.0000000E+000	0.0000000E+000	0.0000000E+000	-7.9061752E+001	0.0000000E+000	0.0000000E+000	0.0000000E+000	-1.0938244E+001	0.0000000E+000	0.0000000E+000	0.0000000E+000	1.0938244E+001	5.1743240E+000	7.9061752E+001	1.531711832454953E-005
5.1807030E+001	4.3230618E+002	1.0467294E+002	4.4479776E+002	-1.3610901E+001	02/16/2024 15:16:08.3351	5.7700914E-001	8.0945782E-002	2.9349253E+001	1.6253268E+000	1.000000000000000E+000	12	1.0211894E-002	2.2958511E-005	0	5.279499467293110E-004	2.1850744E-003	5.2906520E-004	2.2482127E-003	1.3610901E+001	1.6253267E+003	6.7127070E+003	6.9066724E+003	-7.6389099E+001	0.0000000E+000	0.0000000E+000	0.0000000E+000	7.6389099E+001	0.0000000E+000	0.0000000E+000	0.0000000E+000	-7.6389099E+001	0.0000000E+000	0.0000000E+000	0.0000000E+000	-1.3610901E+001	0.0000000E+000	0.0000000E+000	0.0000000E+000	1.3610901E+001	4.1300664E+000	7.6389099E+001	1.495288749048869E-005
3.7253067E+001	4.5294391E+002	1.1945512E+002	4.6843112E+002	-1.4774240E+001	02/16/2024 15:16:08.9950	5.7701033E-001	8.0622308E-002	3.5764599E+001	2.3257947E+000	1.000000000000000E+000	12	1.0203305E-002	2.1781867E-005	0	5.425293599584904E-004	2.0642055E-003	5.4439390E-004	2.1347855E-003	1.4774240E+001	2.3257942E+003	8.8188311E+003	9.1203672E+003	-7.5225761E+001	0.0000000E+000	0.0000000E+000	0.0000000E+000	7.5225761E+001	0.0000000E+000	0.0000000E+000	0.0000000E+000	-7.5225761E+001	0.0000000E+000	0.0000000E+000	0.0000000E+000	-1.4774240E+001	0.0000000E+000	0.0000000E+000	0.0000000E+000	1.4774240E+001	3.7917497E+000	7.5225761E+001	1.457941322917931E-005
2.6828640E+001	4.8068246E+002	1.4969202E+002	5.0345142E+002	-1.7297403E+001	02/16/2024 15:16:09.6515	5.7700408E-001	8.0589876E-002	3.9629887E+001	3.5035229E+000	1.000000000000000E+000	12	1.0142180E-002	2.0145300E-005	0	5.569474215852695E-004	1.8964576E-003	5.9058645E-004	1.9862889E-003	1.7297403E+001	3.5035227E+003	1.1250313E+004	1.1783218E+004	-7.2702599E+001	0.0000000E+000	0.0000000E+000	0.0000000E+000	7.2702599E+001	0.0000000E+000	0.0000000E+000	0.0000000E+000	-7.2702599E+001	0.0000000E+000	0.0000000E+000	0.0000000E+000	-1.7297403E+001	0.0000000E+000	0.0000000E+000	0.0000000E+000	1.7297403E+001	3.2111430E+000	7.2702599E+001	1.441806162677918E-005
1.9313969E+001	5.1206439E+002	1.7509904E+002	5.4117432E+002	-1.8877985E+001	02/16/2024 15:16:10.3693	5.7706046E-001	8.0427006E-002	4.7061401E+001	4.9267220E+000	1.000000000000000E+000	12	1.0187196E-002	1.8824241E-005	0	5.729217083396564E-004	1.7484380E-003	5.9787364E-004	1.8478334E-003	1.8877985E+001	4.9267212E+003	1.4407839E+004	1.5226897E+004	-7.1122017E+001	0.0000000E+000	0.0000000E+000	0.0000000E+000	7.1122017E+001	0.0000000E+000	0.0000000E+000	0.0000000E+000	-7.1122017E+001	0.0000000E+000	0.0000000E+000	0.0000000E+000	-1.8877985E+001	0.0000000E+000	0.0000000E+000	0.0000000E+000	1.8877985E+001	2.9244270E+000	7.1122017E+001	1.597428675438682E-005
1.3884775E+001	5.6622546E+002	1.9277420E+002	5.9814142E+002	-1.8801390E+001	02/16/2024 15:16:11.1163	5.7703239E-001	8.0003195E-002	5.9461025E+001	6.1762156E+000	1.000000000000000E+000	12	1.0193037E-002	1.7041182E-005	0	5.894261024068113E-004	1.5826381E-003	5.3881679E-004	1.6718454E-003	1.8801390E+001	6.1762158E+003	1.8141070E+004	1.9163613E+004	-7.1198608E+001	0.0000000E+000	0.0000000E+000	0.0000000E+000	7.1198608E+001	0.0000000E+000	0.0000000E+000	0.0000000E+000	-7.1198608E+001	0.0000000E+000	0.0000000E+000	0.0000000E+000	-1.8801390E+001	0.0000000E+000	0.0000000E+000	0.0000000E+000	1.8801390E+001	2.9372470E+000	7.1198608E+001	1.650439406715497E-005
1.0003201E+001	6.2082349E+002	2.0795769E+002	6.5472760E+002	-1.8519341E+001	02/16/2024 15:16:11.8111	5.7701337E-001	7.9789802E-002	7.6507874E+001	7.7185340E+000	1.000000000000000E+000	12	1.0186035E-002	1.5557669E-005	0	6.047036104994674E-004	1.4482611E-003	4.8512503E-004	1.5273527E-003	1.8519341E+001	7.7185337E+003	2.3042414E+004	2.4300795E+004	-7.1480659E+001	0.0000000E+000	0.0000000E+000	0.0000000E+000	7.1480659E+001	0.0000000E+000	0.0000000E+000	0.0000000E+000	-7.1480659E+001	0.0000000E+000	0.0000000E+000	0.0000000E+000	-1.8519341E+001	0.0000000E+000	0.0000000E+000	0.0000000E+000	1.8519341E+001	2.9853356E+000	7.1480659E+001	1.527750809265612E-005
7.1938338E+000	6.8274304E+002	2.0976697E+002	7.1424103E+002	-1.7079128E+001	02/16/2024 15:16:12.3250	5.7705230E-001	7.9463042E-002	1.0546846E+002	9.0971899E+000	1.000000000000000E+000	12	1.0183509E-002	1.4257806E-005	0	6.160255027157521E-004	1.3383438E-003	4.1119472E-004	1.4000876E-003	1.7079128E+001	9.0971914E+003	2.9609250E+004	3.0975258E+004	-7.2920868E+001	0.0000000E+000	0.0000000E+000	0.0000000E+000	7.2920868E+001	0.0000000E+000	0.0000000E+000	0.0000000E+000	-7.2920868E+001	0.0000000E+000	0.0000000E+000	0.0000000E+000	-1.7079128E+001	0.0000000E+000	0.0000000E+000	0.0000000E+000	1.7079128E+001	3.2547691E+000	7.2920868E+001	1.132189221628470E-005
5.1807032E+000	7.3739063E+002	1.9451924E+002	7.6261566E+002	-1.4777645E+001	02/16/2024 15:16:13.0022	5.7706827E-001	7.9423398E-002	1.5793153E+002	1.0275017E+001	1.000000000000000E+000	12	1.0178339E-002	1.3346616E-005	0	6.305858567265774E-004	1.2679034E-003	3.3446535E-004	1.3112765E-003	1.4777645E+001	1.0275020E+004	3.8950906E+004	4.0283359E+004	-7.5222351E+001	0.0000000E+000	0.0000000E+000	0.0000000E+000	7.5222351E+001	0.0000000E+000	0.0000000E+000	0.0000000E+000	-7.5222351E+001	0.0000000E+000	0.0000000E+000	0.0000000E+000	-1.4777645E+001	0.0000000E+000	0.0000000E+000	0.0000000E+000	1.4777645E+001	3.7908363E+000	7.5222351E+001	1.456035401082526E-005
3.7273378E+000	7.9261072E+002	1.6999574E+002	8.1063574E+002	-1.2105165E+001	02/16/2024 15:16:13.9086	5.7701623E-001	7.9159088E-002	2.5117902E+002	1.1046074E+001	1.000000000000000E+000	12	1.0177557E-002	1.2555031E-005	0	6.504488729356041E-004	1.2061698E-003	2.5869411E-004	1.2335997E-003	1.2105165E+001	1.1046072E+004	5.1502680E+004	5.2673918E+004	-7.7894836E+001	0.0000000E+000	0.0000000E+000	0.0000000E+000	7.7894836E+001	0.0000000E+000	0.0000000E+000	0.0000000E+000	-7.7894836E+001	0.0000000E+000	0.0000000E+000	0.0000000E+000	-1.2105165E+001	0.0000000E+000	0.0000000E+000	0.0000000E+000	1.2105165E+001	4.6625328E+000	7.7894836E+001	1.986301620902670E-005
2.6847079E+000	8.3359894E+002	1.4787346E+002	8.4661310E+002	-1.0059148E+001	02/16/2024 15:16:15.1361	5.7703453E-001	7.8679919E-002	4.0089706E+002	1.2230476E+001	1.000000000000000E+000	12	1.0176480E-002	1.2020225E-005	0	6.771450411785724E-004	1.1630200E-003	2.0630997E-004	1.1811771E-003	1.0059148E+001	1.2230478E+004	6.8946188E+004	7.0022578E+004	-7.9940849E+001	0.0000000E+000	0.0000000E+000	0.0000000E+000	7.9940849E+001	0.0000000E+000	0.0000000E+000	0.0000000E+000	-7.9940849E+001	0.0000000E+000	0.0000000E+000	0.0000000E+000	-1.0059148E+001	0.0000000E+000	0.0000000E+000	0.0000000E+000	1.0059148E+001	5.6372452E+000	7.9940849E+001	2.669616824296827E-005
1.9299656E+000	8.6016583E+002	1.1987194E+002	8.6847827E+002	-7.9335928E+000	02/16/2024 15:16:16.8121	5.7702696E-001	7.8286298E-002	6.8794391E+002	1.3106001E+001	1.000000000000000E+000	12	1.0174157E-002	1.1714924E-005	0	7.131188688384508E-004	1.1404185E-003	1.5892771E-004	1.1514393E-003	7.9335928E+000	1.3106003E+004	9.4044813E+004	9.4953641E+004	-8.2066406E+001	0.0000000E+000	0.0000000E+000	0.0000000E+000	8.2066406E+001	0.0000000E+000	0.0000000E+000	0.0000000E+000	-8.2066406E+001	0.0000000E+000	0.0000000E+000	0.0000000E+000	-7.9335928E+000	0.0000000E+000	0.0000000E+000	0.0000000E+000	7.9335928E+000	7.1757064E+000	8.2066406E+001	3.597382765987847E-005
1.3881482E+000	8.7757813E+002	9.0608170E+001	8.8224329E+002	-5.8947864E+000	02/16/2024 15:16:19.1169	5.7701761E-001	7.7634849E-002	1.2653683E+003	1.3346731E+001	1.000000000000000E+000	12	1.0177922E-002	1.1536413E-005	0	7.627194083902512E-004	1.1274805E-003	1.1641009E-004	1.1334742E-003	5.8947864E+000	1.3346725E+004	1.2926870E+005	1.2995588E+005	-8.4105217E+001	0.0000000E+000	0.0000000E+000	0.0000000E+000	8.4105217E+001	0.0000000E+000	0.0000000E+000	0.0000000E+000	-8.4105217E+001	0.0000000E+000	0.0000000E+000	0.0000000E+000	-5.8947864E+000	0.0000000E+000	0.0000000E+000	0.0000000E+000	5.8947864E+000	9.6854191E+000	8.4105217E+001	4.960053955180039E-005
1.0000639E+000	8.9738763E+002	6.4329971E+001	8.9969043E+002	-4.1002812E+000	02/16/2024 15:16:22.2871	5.7704633E-001	7.6854303E-002	2.4738823E+003	1.2647932E+001	1.000000000000000E+000	12	1.0185426E-002	1.1321034E-005	0	8.307949224760066E-004	1.1086485E-003	7.9474383E-005	1.1114934E-003	4.1002812E+000	1.2647932E+004	1.7643563E+005	1.7688838E+005	-8.5899719E+001	0.0000000E+000	0.0000000E+000	0.0000000E+000	8.5899719E+001	0.0000000E+000	0.0000000E+000	0.0000000E+000	-8.5899719E+001	0.0000000E+000	0.0000000E+000	0.0000000E+000	-4.1002812E+000	0.0000000E+000	0.0000000E+000	0.0000000E+000	4.1002812E+000	1.3949759E+001	8.5899719E+001	6.807551408575543E-005
7.2017908E-001	9.1722675E+002	4.8706154E+001	9.1851904E+002	-3.0396392E+000	02/16/2024 15:16:26.6637	5.7703853E-001	7.5829186E-002	4.5372822E+003	1.2758133E+001	1.000000000000000E+000	12	1.0177589E-002	1.1080433E-005	0	9.237235621735453E-004	1.0871774E-003	5.7730795E-005	1.0887091E-003	3.0396392E+000	1.2758146E+004	2.4025919E+005	2.4059769E+005	-8.6960358E+001	0.0000000E+000	0.0000000E+000	0.0000000E+000	8.6960358E+001	0.0000000E+000	0.0000000E+000	0.0000000E+000	-8.6960358E+001	0.0000000E+000	0.0000000E+000	0.0000000E+000	-3.0396392E+000	0.0000000E+000	0.0000000E+000	0.0000000E+000	3.0396392E+000	1.8831844E+001	8.6960358E+001	9.292863969753869E-005
5.1752120E-001	9.3327295E+002	4.1898602E+001	9.3421295E+002	-2.5705259E+000	02/16/2024 15:16:32.7288	5.7703966E-001	7.4634209E-002	7.3399395E+003	1.4763854E+001	1.000000000000000E+000	12	1.0184871E-002	1.0902088E-005	0	1.050093559981070E-003	1.0693427E-003	4.8007354E-005	1.0704198E-003	2.5705259E+000	1.4763855E+004	3.2885834E+005	3.2918959E+005	-8.7429474E+001	0.0000000E+000	0.0000000E+000	0.0000000E+000	8.7429474E+001	0.0000000E+000	0.0000000E+000	0.0000000E+000	-8.7429474E+001	0.0000000E+000	0.0000000E+000	0.0000000E+000	-2.5705259E+000	0.0000000E+000	0.0000000E+000	0.0000000E+000	2.5705259E+000	2.2274561E+001	8.7429474E+001	1.263699978075246E-004
3.7244946E-001	9.4096722E+002	4.2408493E+001	9.4192242E+002	-2.5805197E+000	02/16/2024 15:16:41.1306	5.7704312E-001	7.3181786E-002	1.0076273E+004	2.0425625E+001	1.000000000000000E+000	12	1.0182235E-002	1.0810058E-005	0	1.221201639337970E-003	1.0605820E-003	4.7799414E-005	1.0616586E-003	2.5805197E+000	2.0425633E+004	4.5320741E+005	4.5366747E+005	-8.7419479E+001	0.0000000E+000	0.0000000E+000	0.0000000E+000	8.7419479E+001	0.0000000E+000	0.0000000E+000	0.0000000E+000	-8.7419479E+001	0.0000000E+000	0.0000000E+000	0.0000000E+000	-2.5805197E+000	0.0000000E+000	0.0000000E+000	0.0000000E+000	2.5805197E+000	2.2188179E+001	8.7419479E+001	1.711080793568996E-004
2.6843393E-001	9.4259076E+002	3.8954208E+001	9.4339532E+002	-2.3665016E+000	02/16/2024 15:16:52.7630	5.7703966E-001	7.1506575E-002	1.5220479E+004	2.5950735E+001	1.000000000000000E+000	12	1.0182155E-002	1.0793095E-005	0	1.452548325859311E-003	1.0590969E-003	4.3769032E-005	1.0600010E-003	2.3665016E+000	2.5950729E+004	6.2794044E+005	6.2847644E+005	-8.7633499E+001	0.0000000E+000	0.0000000E+000	0.0000000E+000	8.7633499E+001	0.0000000E+000	0.0000000E+000	0.0000000E+000	-8.7633499E+001	0.0000000E+000	0.0000000E+000	0.0000000E+000	-2.3665016E+000	0.0000000E+000	0.0000000E+000	0.0000000E+000	2.3665016E+000	2.4197405E+001	8.7633499E+001	2.313466865213414E-004
1.9284412E-001	9.4540826E+002	2.8981461E+001	9.4585236E+002	-1.7558506E+000	02/16/2024 15:17:08.9323	5.7704294E-001	6.9613092E-002	2.8476949E+004	2.6735435E+001	1.000000000000000E+000	12	1.0181151E-002	1.0763996E-005	0	1.766423386928435E-003	1.0567511E-003	3.2394673E-005	1.0572475E-003	1.7558506E+000	2.6735455E+004	8.7214038E+005	8.7255006E+005	-8.8244148E+001	0.0000000E+000	0.0000000E+000	0.0000000E+000	8.8244148E+001	0.0000000E+000	0.0000000E+000	0.0000000E+000	-8.8244148E+001	0.0000000E+000	0.0000000E+000	0.0000000E+000	-1.7558506E+000	0.0000000E+000	0.0000000E+000	0.0000000E+000	1.7558506E+000	3.2621140E+001	8.8244148E+001	3.138750610691236E-004
1.3893336E-001	9.5568622E+002	1.3907139E+001	9.5578741E+002	-8.3370888E-001	02/16/2024 15:17:31.3514	5.7704443E-001	6.7517914E-002	8.2371273E+004	1.7439289E+001	1.000000000000000E+000	12	1.0182331E-002	1.0653343E-005	0	2.190338828080754E-003	1.0461471E-003	1.5223523E-005	1.0462578E-003	8.3370888E-001	1.7439305E+004	1.1984124E+006	1.1985393E+006	-8.9166290E+001	0.0000000E+000	0.0000000E+000	0.0000000E+000	8.9166290E+001	0.0000000E+000	0.0000000E+000	0.0000000E+000	-8.9166290E+001	0.0000000E+000	0.0000000E+000	0.0000000E+000	-8.3370888E-001	0.0000000E+000	0.0000000E+000	0.0000000E+000	8.3370888E-001	6.8719109E+001	8.9166290E+001	4.239154411523195E-004
9.9904090E-002	9.7739539E+002	-3.4820733E+000	9.7740161E+002	2.0412134E-001	02/16/2024 15:18:02.5042	5.7704633E-001	6.5238371E-002	-4.5750831E+005	-5.8066907E+000	1.000000000000000E+000	12	1.0180460E-002	1.0415842E-005	0	2.762416602775338E-003	1.0231143E-003	-3.6449517E-006	1.0231208E-003	-2.0412134E-001	-5.8067793E+003	1.6299004E+006	1.6299108E+006	-9.0204124E+001	0.0000000E+000	0.0000000E+000	0.0000000E+000	9.0204124E+001	0.0000000E+000	0.0000000E+000	0.0000000E+000	-9.0204124E+001	0.0000000E+000	0.0000000E+000	0.0000000E+000	2.0412134E-001	0.0000000E+000	0.0000000E+000	0.0000000E+000	-2.0412134E-001	2.8069351E+002	8.9795876E+001	5.720777746945839E-004