EC-Lab ASCII FILE
Nb header lines : 65                          

Potentio Electrochemical Impedance Spectroscopy

Run on channel : 1 (SN 6813)
User : 
CE vs. WE compliance from -10 V to 10 V
Electrode connection : standard
Potential control : Ewe
Ewe ctrl range : min = -1.00 V, max = 1.00 V
Safety Limits :
	Do not start on E overload
Acquisition started on : 02/16/2024 15:21:26.624
Technique started on : 02/16/2024 15:21:27.630
Loaded Setting File :  NONE
Saved on :
	File : 11 2EL413 RVC EtOH TBA-BF4_(under Ar) solidstateref+faradaiccage EIS 0-5.mpr
	Directory : C:\Users\VSP\Documents\EC-Lab\Data\Louis\2024 02 16\
	Host : 10.10.11.222
Device : VSP (SN 0301)
Address : USB
EC-Lab for windows v11.50 (software)
Internet server v11.50 (firmware)
Command interpretor v11.50 (firmware)
Electrode material : 
Initial state : 
Electrolyte : 
Comments : 
Current amplifier : Low Current
Electrode surface area : 0.001 cm²
Characteristic mass : 0.001 g
Equivalent Weight : 0.000 g/eq.
Density : 0.000 g/cm3
Volume (V) : 0.001 cm³
Cycle Definition : Charge/Discharge alternance
Mode                Single sine         
E (V)               0.5000              
vs.                 Eoc                 
tE (h:m:s)          0:00:0.0000         
record              0                   
dI                  0.000               
unit dI             mA                  
dt (s)              0.000               
fi                  1.000               
unit fi             MHz                 
ff                  0.100               
unit ff             Hz                  
Nd                  50                  
Points              from fi to ff       
spacing             Logarithmic         
Va (mV)             10.0                
pw                  0.10                
Na                  3                   
corr                0                   
E range min (V)     -1.000              
E range max (V)     1.000               
I Range             Auto                
Bandwidth           4                   
nc cycles           0                   
goto Ns'            0                   
nr cycles           0                   
inc. cycle          0                   

freq/Hz	Re(Z)/Ohm	-Im(Z)/Ohm	|Z|/Ohm	Phase(Z)/deg	time/s	<Ewe>/V	<I>/mA	Cs/µF	Cp/µF	cycle number	I Range	|Ewe|/V	|I|/A	Ns	(Q-Qo)/mA.h	Re(Y)/Ohm-1	Im(Y)/Ohm-1	|Y|/Ohm-1	Phase(Y)/deg	Re(C)/nF	Im(C)/nF	|C|/nF	Phase(C)/deg	Re(M)	Im(M)	|M|	Phase(M)/deg	Re(Permittivity)	Im(Permittivity)	|Permittivity|	Phase(Permittivity)/deg	Re(Resistivity)/Ohm.cm	Im(Resistivity)/Ohm.cm	|Resistivity|/Ohm.cm	Phase(Resistivity)/deg	Re(Conductivity)/mS/cm	Im(Conductivity)/mS/cm	|Conductivity|/mS/cm	Phase(Conductivity)/deg	Tan(Delta)	Loss Angle(Delta)/deg	dq/mA.h	
1.0000186E+006	-3.0609750E+002	-1.2205882E+002	3.2953610E+002	1.5825996E+002	02/16/2024 15:21:27.6297	7.8264982E-001	3.6459148E-001	-1.3038958E-003	-1.7888554E-004	1.000000000000000E+000	12	1.1496694E-003	3.4887510E-006	0	6.704311744177378E-005	-2.8187321E-003	-1.1239919E-003	3.0345689E-003	-1.5825996E+002	-1.7888553E-001	-4.4860682E-001	4.8295766E-001	1.1174004E+002	0.0000000E+000	0.0000000E+000	0.0000000E+000	-1.1174004E+002	0.0000000E+000	0.0000000E+000	0.0000000E+000	1.1174004E+002	0.0000000E+000	0.0000000E+000	0.0000000E+000	1.5825996E+002	0.0000000E+000	0.0000000E+000	0.0000000E+000	-1.5825996E+002	2.5077868E+000	6.8259964E+001	6.704311744177378E-005
7.1968713E+005	-2.3428964E+002	3.5586176E+002	4.2606247E+002	-1.2335982E+002	02/16/2024 15:21:28.2087	7.8305948E-001	3.6411983E-001	6.2143413E-004	4.3352201E-004	1.000000000000000E+000	12	1.2494526E-003	2.9325572E-006	0	1.247388727622294E-004	-1.2906444E-003	1.9603551E-003	2.3470738E-003	1.2335982E+002	4.3352199E-001	-2.8541905E-001	5.1904273E-001	3.3359818E+001	0.0000000E+000	0.0000000E+000	0.0000000E+000	-3.3359818E+001	0.0000000E+000	0.0000000E+000	0.0000000E+000	3.3359818E+001	0.0000000E+000	0.0000000E+000	0.0000000E+000	-1.2335982E+002	0.0000000E+000	0.0000000E+000	0.0000000E+000	1.2335982E+002	6.5837264E-001	3.3359818E+001	5.769575532045564E-005
5.1794463E+005	4.5507126E+001	1.5475856E+002	1.6131061E+002	-7.3613899E+001	02/16/2024 15:21:29.7707	7.8325438E-001	3.6417717E-001	1.9855560E-003	1.8275348E-003	1.000000000000000E+000	11	2.5178492E-003	1.5608703E-005	0	2.727618170777924E-004	1.7488542E-003	5.9474232E-003	6.1992202E-003	7.3613899E+001	1.8275347E+000	5.3739101E-001	1.9049073E+000	-1.6386101E+001	0.0000000E+000	0.0000000E+000	0.0000000E+000	1.6386101E+001	0.0000000E+000	0.0000000E+000	0.0000000E+000	-1.6386101E+001	0.0000000E+000	0.0000000E+000	0.0000000E+000	-7.3613899E+001	0.0000000E+000	0.0000000E+000	0.0000000E+000	7.3613899E+001	2.9405239E-001	1.6386108E+001	1.480229443155630E-004
3.7276388E+005	8.5674957E+001	1.2077050E+002	1.4807333E+002	-5.4647995E+001	02/16/2024 15:21:30.3497	7.8325427E-001	3.6403042E-001	3.5352933E-003	2.3517625E-003	1.000000000000000E+000	11	3.9455537E-003	2.6645945E-005	0	3.303671619304061E-004	3.9075110E-003	5.5081677E-003	6.7534107E-003	5.4647995E+001	2.3517625E+000	1.6683475E+000	2.8834302E+000	-3.5352005E+001	0.0000000E+000	0.0000000E+000	0.0000000E+000	3.5352005E+001	0.0000000E+000	0.0000000E+000	0.0000000E+000	-3.5352005E+001	0.0000000E+000	0.0000000E+000	0.0000000E+000	-5.4647995E+001	0.0000000E+000	0.0000000E+000	0.0000000E+000	5.4647995E+001	7.0940304E-001	3.5352005E+001	5.760534485261371E-005
2.6826938E+005	9.5886581E+001	1.0293980E+002	1.4067992E+002	-4.7031673E+001	02/16/2024 15:21:30.9287	7.8313267E-001	3.6328447E-001	5.7632267E-003	3.0858028E-003	1.000000000000000E+000	11	5.8358409E-003	4.1483116E-005	0	3.880176417298693E-004	4.8449985E-003	5.2013868E-003	7.1083354E-003	4.7031673E+001	3.0858026E+000	2.8743699E+000	4.2171292E+000	-4.2968327E+001	0.0000000E+000	0.0000000E+000	0.0000000E+000	4.2968327E+001	0.0000000E+000	0.0000000E+000	0.0000000E+000	-4.2968327E+001	0.0000000E+000	0.0000000E+000	0.0000000E+000	-4.7031673E+001	0.0000000E+000	0.0000000E+000	0.0000000E+000	4.7031673E+001	9.3148208E-001	4.2968323E+001	5.765047979946315E-005
1.9306711E+005	1.0594490E+002	9.7461403E+001	1.4395502E+002	-4.2611740E+001	02/16/2024 15:21:31.5077	7.8306371E-001	3.6237070E-001	8.4582241E-003	3.8769562E-003	1.000000000000000E+000	11	8.8585028E-003	6.1536601E-005	0	4.453888849780617E-004	5.1124189E-003	4.7030440E-003	6.9466145E-003	4.2611740E+001	3.8769562E+000	4.2144246E+000	5.7264442E+000	-4.7388260E+001	0.0000000E+000	0.0000000E+000	0.0000000E+000	4.7388260E+001	0.0000000E+000	0.0000000E+000	0.0000000E+000	-4.7388260E+001	0.0000000E+000	0.0000000E+000	0.0000000E+000	-4.2611740E+001	0.0000000E+000	0.0000000E+000	0.0000000E+000	4.2611740E+001	1.0870447E+000	4.7388260E+001	5.737124324819238E-005
1.3894559E+005	1.1970741E+002	9.8632698E+001	1.5510730E+002	-3.9486752E+001	02/16/2024 15:21:32.0867	7.8306770E-001	3.6185980E-001	1.1613267E-002	4.6960399E-003	1.000000000000000E+000	11	1.0448977E-002	6.7366120E-005	0	5.023884499154811E-004	4.9757273E-003	4.0997411E-003	6.4471499E-003	3.9486752E+001	4.6960397E+000	5.6994362E+000	7.3848739E+000	-5.0513248E+001	0.0000000E+000	0.0000000E+000	0.0000000E+000	5.0513248E+001	0.0000000E+000	0.0000000E+000	0.0000000E+000	-5.0513248E+001	0.0000000E+000	0.0000000E+000	0.0000000E+000	-3.9486752E+001	0.0000000E+000	0.0000000E+000	0.0000000E+000	3.9486752E+001	1.2136686E+000	5.0513245E+001	5.699956493741940E-005
1.0000371E+005	1.3417017E+002	1.0312949E+002	1.6922566E+002	-3.7547569E+001	02/16/2024 15:21:32.6657	7.8312802E-001	3.6187434E-001	1.5431962E-002	5.7313167E-003	1.000000000000000E+000	11	1.0678633E-002	6.3102918E-005	0	5.597977172232188E-004	4.6851500E-003	3.6012263E-003	5.9092692E-003	3.7547569E+001	5.7313166E+000	7.4563713E+000	9.4045448E+000	-5.2452431E+001	0.0000000E+000	0.0000000E+000	0.0000000E+000	5.2452431E+001	0.0000000E+000	0.0000000E+000	0.0000000E+000	-5.2452431E+001	0.0000000E+000	0.0000000E+000	0.0000000E+000	-3.7547569E+001	0.0000000E+000	0.0000000E+000	0.0000000E+000	3.7547569E+001	1.3009875E+000	5.2452431E+001	5.740926730773770E-005
7.1964070E+004	1.5317834E+002	1.1090340E+002	1.8911153E+002	-3.5905094E+001	02/16/2024 15:21:33.2447	7.8315240E-001	3.6195520E-001	1.9941580E-002	6.8582492E-003	1.000000000000000E+000	11	1.0713126E-002	5.6649777E-005	0	6.176257792356805E-004	4.2831316E-003	3.1010506E-003	5.2878852E-003	3.5905094E+001	6.8582492E+000	9.4725266E+000	1.1694629E+001	-5.4094906E+001	0.0000000E+000	0.0000000E+000	0.0000000E+000	5.4094906E+001	0.0000000E+000	0.0000000E+000	0.0000000E+000	-5.4094906E+001	0.0000000E+000	0.0000000E+000	0.0000000E+000	-3.5905094E+001	0.0000000E+000	0.0000000E+000	0.0000000E+000	3.5905094E+001	1.3811871E+000	5.4094910E+001	5.782806201246179E-005
5.1792605E+004	1.7764775E+002	1.2145473E+002	2.1519753E+002	-3.4359749E+001	02/16/2024 15:21:33.8247	7.8316307E-001	3.6183757E-001	2.5301015E-002	8.0592064E-003	1.000000000000000E+000	11	1.0775056E-002	5.0070539E-005	0	6.746436143390990E-004	3.8360581E-003	2.6226472E-003	4.6468936E-003	3.4359749E+001	8.0592060E+000	1.1787930E+001	1.4279569E+001	-5.5640251E+001	0.0000000E+000	0.0000000E+000	0.0000000E+000	5.5640251E+001	0.0000000E+000	0.0000000E+000	0.0000000E+000	-5.5640251E+001	0.0000000E+000	0.0000000E+000	0.0000000E+000	-3.4359749E+001	0.0000000E+000	0.0000000E+000	0.0000000E+000	3.4359749E+001	1.4626664E+000	5.5640251E+001	5.701783510341841E-005
3.7271750E+004	2.1093411E+002	1.2773761E+002	2.4659703E+002	-3.1198286E+001	02/16/2024 15:21:34.4037	7.8314549E-001	3.6131486E-001	3.3428859E-002	8.9698145E-003	1.000000000000000E+000	11	1.0758436E-002	4.3627599E-005	0	7.314763127866414E-004	3.4687349E-003	2.1005988E-003	4.0551987E-003	3.1198286E+001	8.9698153E+000	1.4811924E+001	1.7316196E+001	-5.8801712E+001	0.0000000E+000	0.0000000E+000	0.0000000E+000	5.8801712E+001	0.0000000E+000	0.0000000E+000	0.0000000E+000	-5.8801712E+001	0.0000000E+000	0.0000000E+000	0.0000000E+000	-3.1198286E+001	0.0000000E+000	0.0000000E+000	0.0000000E+000	3.1198286E+001	1.6513078E+000	5.8801712E+001	5.683269844754247E-005
2.6824154E+004	2.4868983E+002	1.2698169E+002	2.7923285E+002	-2.7048977E+001	02/16/2024 15:21:34.9837	7.8315634E-001	3.6071265E-001	4.6725400E-002	9.6627828E-003	1.000000000000000E+000	11	1.0689541E-002	3.8281818E-005	0	7.885223485838409E-004	3.1895177E-003	1.6285762E-003	3.5812405E-003	2.7048977E+001	9.6627817E+000	1.8924269E+001	2.1248466E+001	-6.2951023E+001	0.0000000E+000	0.0000000E+000	0.0000000E+000	6.2951023E+001	0.0000000E+000	0.0000000E+000	0.0000000E+000	-6.2951023E+001	0.0000000E+000	0.0000000E+000	0.0000000E+000	-2.7048977E+001	0.0000000E+000	0.0000000E+000	0.0000000E+000	2.7048977E+001	1.9584700E+000	6.2951019E+001	5.704603579719946E-005
1.9308566E+004	2.8384421E+002	1.1592124E+002	3.0660278E+002	-2.2214979E+001	02/16/2024 15:21:35.5627	7.8315389E-001	3.6048493E-001	7.1106136E-002	1.0164381E-002	1.000000000000000E+000	11	1.0626580E-002	3.4659111E-005	0	8.455456100005669E-004	3.0194500E-003	1.2331357E-003	3.2615489E-003	2.2214979E+001	1.0164382E+001	2.4888454E+001	2.6884007E+001	-6.7785019E+001	0.0000000E+000	0.0000000E+000	0.0000000E+000	6.7785019E+001	0.0000000E+000	0.0000000E+000	0.0000000E+000	-6.7785019E+001	0.0000000E+000	0.0000000E+000	0.0000000E+000	-2.2214979E+001	0.0000000E+000	0.0000000E+000	0.0000000E+000	2.2214979E+001	2.4485953E+000	6.7785019E+001	5.702326141672606E-005
1.3899199E+004	3.1216446E+002	9.9536362E+001	3.2764941E+002	-1.7685335E+001	02/16/2024 15:21:36.1427	7.8314686E-001	3.6071229E-001	1.1503992E-001	1.0616792E-002	1.000000000000000E+000	11	1.0428487E-002	3.1828189E-005	0	9.027643110028487E-004	2.9078010E-003	9.2717767E-004	3.0520428E-003	1.7685335E+001	1.0616790E+001	3.3296227E+001	3.4947887E+001	-7.2314667E+001	0.0000000E+000	0.0000000E+000	0.0000000E+000	7.2314667E+001	0.0000000E+000	0.0000000E+000	0.0000000E+000	-7.2314667E+001	0.0000000E+000	0.0000000E+000	0.0000000E+000	-1.7685335E+001	0.0000000E+000	0.0000000E+000	0.0000000E+000	1.7685335E+001	3.1361852E+000	7.2314667E+001	5.721870100228177E-005
1.0002226E+004	3.3231055E+002	8.2079460E+001	3.4229715E+002	-1.3874151E+001	02/16/2024 15:21:36.7217	7.8316784E-001	3.6079609E-001	1.9386035E-001	1.1146831E-002	1.000000000000000E+000	11	1.0357145E-002	3.0257761E-005	0	9.596722075191081E-004	2.8362046E-003	7.0053193E-004	2.9214383E-003	1.3874151E+001	1.1146833E+001	4.5129555E+001	4.6485790E+001	-7.6125847E+001	0.0000000E+000	0.0000000E+000	0.0000000E+000	7.6125847E+001	0.0000000E+000	0.0000000E+000	0.0000000E+000	-7.6125847E+001	0.0000000E+000	0.0000000E+000	0.0000000E+000	-1.3874151E+001	0.0000000E+000	0.0000000E+000	0.0000000E+000	1.3874151E+001	4.0486445E+000	7.6125847E+001	5.690789651625937E-005
7.1953535E+003	3.4505035E+002	6.4029350E+001	3.5094089E+002	-1.0512529E+001	02/16/2024 15:21:37.4316	7.8314185E-001	3.6007854E-001	3.4545296E-001	1.1499505E-002	1.000000000000000E+000	11	1.0152015E-002	2.8927992E-005	0	1.029460875491007E-003	2.8016542E-003	5.1988964E-004	2.8494827E-003	1.0512529E+001	1.1499504E+001	6.1970154E+001	6.3028076E+001	-7.9487473E+001	0.0000000E+000	0.0000000E+000	0.0000000E+000	7.9487473E+001	0.0000000E+000	0.0000000E+000	0.0000000E+000	-7.9487473E+001	0.0000000E+000	0.0000000E+000	0.0000000E+000	-1.0512529E+001	0.0000000E+000	0.0000000E+000	0.0000000E+000	1.0512529E+001	5.3889403E+000	7.9487473E+001	6.978866797189892E-005
5.1814517E+003	3.5282837E+002	5.0960640E+001	3.5648962E+002	-8.2186594E+000	02/16/2024 15:21:38.3586	7.8315002E-001	3.5987115E-001	6.0274523E-001	1.2317137E-002	1.000000000000000E+000	11	1.0168822E-002	2.8524873E-005	0	1.120925071461395E-003	2.7763213E-003	4.0099700E-004	2.8051308E-003	8.2186594E+000	1.2317136E+001	8.5278275E+001	8.6163193E+001	-8.1781342E+001	0.0000000E+000	0.0000000E+000	0.0000000E+000	8.1781342E+001	0.0000000E+000	0.0000000E+000	0.0000000E+000	-8.1781342E+001	0.0000000E+000	0.0000000E+000	0.0000000E+000	-8.2186594E+000	0.0000000E+000	0.0000000E+000	0.0000000E+000	8.2186594E+000	6.9235468E+000	8.1781342E+001	9.146419597038757E-005
3.7264229E+003	3.5824442E+002	4.1144012E+001	3.6059933E+002	-6.5516577E+000	02/16/2024 15:21:39.0563	7.8317946E-001	3.5966411E-001	1.0380573E+000	1.3514028E-002	1.000000000000000E+000	11	1.0684962E-002	2.9631121E-005	0	1.189757195658125E-003	2.7550505E-003	3.1641481E-004	2.7731610E-003	6.5516577E+000	1.3514029E+001	1.1766778E+002	1.1844127E+002	-8.3448341E+001	0.0000000E+000	0.0000000E+000	0.0000000E+000	8.3448341E+001	0.0000000E+000	0.0000000E+000	0.0000000E+000	-8.3448341E+001	0.0000000E+000	0.0000000E+000	0.0000000E+000	-6.5516577E+000	0.0000000E+000	0.0000000E+000	0.0000000E+000	6.5516577E+000	8.7070847E+000	8.3448341E+001	6.883212419673038E-005
2.6824250E+003	3.6112119E+002	3.3839325E+001	3.6270319E+002	-5.3533421E+000	02/16/2024 15:21:39.7544	7.8318119E-001	3.5945523E-001	1.7533591E+000	1.5262001E-002	1.000000000000000E+000	11	1.0941532E-002	3.0166628E-005	0	1.258373886308542E-003	2.7450495E-003	2.5722838E-004	2.7570752E-003	5.3533421E+000	1.5261995E+001	1.6287062E+002	1.6358414E+002	-8.4646660E+001	0.0000000E+000	0.0000000E+000	0.0000000E+000	8.4646660E+001	0.0000000E+000	0.0000000E+000	0.0000000E+000	-8.4646660E+001	0.0000000E+000	0.0000000E+000	0.0000000E+000	-5.3533421E+000	0.0000000E+000	0.0000000E+000	0.0000000E+000	5.3533421E+000	1.0671642E+001	8.4646660E+001	6.861669065041736E-005
1.9306176E+003	3.6290292E+002	2.9435671E+001	3.6409476E+002	-4.6372056E+000	02/16/2024 15:21:40.9491	7.8316438E-001	3.5822132E-001	2.8005927E+000	1.8304968E-002	1.000000000000000E+000	12	9.4876941E-003	2.6058309E-005	0	1.373372718537091E-003	2.7375473E-003	2.2204708E-004	2.7465378E-003	4.6372056E+000	1.8304972E+001	2.2567607E+002	2.2641722E+002	-8.5362793E+001	0.0000000E+000	0.0000000E+000	0.0000000E+000	8.5362793E+001	0.0000000E+000	0.0000000E+000	0.0000000E+000	-8.5362793E+001	0.0000000E+000	0.0000000E+000	0.0000000E+000	-4.6372056E+000	0.0000000E+000	0.0000000E+000	0.0000000E+000	4.6372056E+000	1.2328678E+001	8.5362793E+001	1.149988322285483E-004
1.3886667E+003	3.6534726E+002	2.7474178E+001	3.6637885E+002	-4.3005581E+000	02/16/2024 15:21:41.6473	7.8315967E-001	3.5803890E-001	4.1715488E+000	2.3457732E-002	1.000000000000000E+000	12	9.8884422E-003	2.6989665E-005	0	1.441830638622235E-003	2.7217302E-003	2.0467459E-004	2.7294152E-003	4.3005581E+000	2.3457741E+001	3.1193719E+002	3.1281796E+002	-8.5699440E+001	0.0000000E+000	0.0000000E+000	0.0000000E+000	8.5699440E+001	0.0000000E+000	0.0000000E+000	0.0000000E+000	-8.5699440E+001	0.0000000E+000	0.0000000E+000	0.0000000E+000	-4.3005581E+000	0.0000000E+000	0.0000000E+000	0.0000000E+000	4.3005581E+000	1.3297841E+001	8.5699440E+001	6.845792008514399E-005
1.0003202E+003	3.6952985E+002	2.8731779E+001	3.7064514E+002	-4.4459314E+000	02/16/2024 15:21:42.3441	7.8317082E-001	3.5787520E-001	5.5375619E+000	3.3275682E-002	1.000000000000000E+000	12	1.0109633E-002	2.7275773E-005	0	1.510318731892999E-003	2.6898799E-003	2.0914424E-004	2.6979984E-003	4.4459314E+000	3.3275677E+001	4.2797064E+002	4.2926233E+002	-8.5554070E+001	0.0000000E+000	0.0000000E+000	0.0000000E+000	8.5554070E+001	0.0000000E+000	0.0000000E+000	0.0000000E+000	-8.5554070E+001	0.0000000E+000	0.0000000E+000	0.0000000E+000	-4.4459314E+000	0.0000000E+000	0.0000000E+000	0.0000000E+000	4.4459314E+000	1.2861363E+001	8.5554070E+001	6.848809327076482E-005
7.1930957E+002	3.7273346E+002	2.9275518E+001	3.7388138E+002	-4.4909496E+000	02/16/2024 15:21:43.0424	7.8313881E-001	3.5769060E-001	7.5578747E+000	4.6338420E-002	1.000000000000000E+000	12	1.0225533E-002	2.7349670E-005	0	1.578930455116051E-003	2.6664331E-003	2.0942905E-004	2.6746450E-003	4.4909496E+000	4.6338436E+001	5.8997687E+002	5.9179382E+002	-8.5509048E+001	0.0000000E+000	0.0000000E+000	0.0000000E+000	8.5509048E+001	0.0000000E+000	0.0000000E+000	0.0000000E+000	-8.5509048E+001	0.0000000E+000	0.0000000E+000	0.0000000E+000	-4.4909496E+000	0.0000000E+000	0.0000000E+000	0.0000000E+000	4.4909496E+000	1.2731916E+001	8.5509048E+001	6.861172322305121E-005
5.1817603E+002	3.7901154E+002	3.0353626E+001	3.8022504E+002	-4.5788336E+000	02/16/2024 15:21:43.7418	7.8313708E-001	3.5755938E-001	1.0118876E+001	6.4486973E-002	1.000000000000000E+000	12	1.0345348E-002	2.7208487E-005	0	1.647421117323263E-003	2.6216276E-003	2.0995642E-004	2.6300214E-003	4.5788336E+000	6.4486984E+001	8.0521863E+002	8.0779675E+002	-8.5421165E+001	0.0000000E+000	0.0000000E+000	0.0000000E+000	8.5421165E+001	0.0000000E+000	0.0000000E+000	0.0000000E+000	-8.5421165E+001	0.0000000E+000	0.0000000E+000	0.0000000E+000	-4.5788336E+000	0.0000000E+000	0.0000000E+000	0.0000000E+000	4.5788336E+000	1.2486532E+001	8.5421165E+001	6.849066220721250E-005
3.7273376E+002	3.8288004E+002	3.6470585E+001	3.8461310E+002	-5.4411950E+000	02/16/2024 15:21:44.4413	7.8316224E-001	3.5739687E-001	1.1707891E+001	1.0527276E-001	1.000000000000000E+000	12	1.0327318E-002	2.6851187E-005	0	1.716211174721843E-003	2.5882998E-003	2.4654408E-004	2.6000154E-003	5.4411950E+000	1.0527271E+002	1.1051876E+003	1.1101901E+003	-8.4558807E+001	0.0000000E+000	0.0000000E+000	0.0000000E+000	8.4558807E+001	0.0000000E+000	0.0000000E+000	0.0000000E+000	-8.4558807E+001	0.0000000E+000	0.0000000E+000	0.0000000E+000	-5.4411950E+000	0.0000000E+000	0.0000000E+000	0.0000000E+000	5.4411950E+000	1.0498324E+001	8.4558807E+001	6.879005739857938E-005
2.6836835E+002	3.8799268E+002	4.2538067E+001	3.9031757E+002	-6.2567062E+000	02/16/2024 15:21:45.1434	7.8316861E-001	3.5722554E-001	1.3941551E+001	1.6558859E-001	1.000000000000000E+000	12	1.0320372E-002	2.6440963E-005	0	1.784858641699283E-003	2.5467561E-003	2.7921682E-004	2.5620165E-003	6.2567062E+000	1.6558858E+002	1.5103450E+003	1.5193951E+003	-8.3743294E+001	0.0000000E+000	0.0000000E+000	0.0000000E+000	8.3743294E+001	0.0000000E+000	0.0000000E+000	0.0000000E+000	-8.3743294E+001	0.0000000E+000	0.0000000E+000	0.0000000E+000	-6.2567062E+000	0.0000000E+000	0.0000000E+000	0.0000000E+000	6.2567062E+000	9.1210699E+000	8.3743294E+001	6.864746697744068E-005
1.9308463E+002	3.9848727E+002	4.7411301E+001	4.0129782E+002	-6.7850528E+000	02/16/2024 15:21:45.8471	7.8309119E-001	3.5707545E-001	1.7385635E+001	2.4267256E-001	1.000000000000000E+000	12	1.0324370E-002	2.5727451E-005	0	1.853860926229432E-003	2.4744624E-003	2.9440710E-004	2.4919149E-003	6.7850528E+000	2.4267247E+002	2.0396390E+003	2.0540247E+003	-8.3214951E+001	0.0000000E+000	0.0000000E+000	0.0000000E+000	8.3214951E+001	0.0000000E+000	0.0000000E+000	0.0000000E+000	-8.3214951E+001	0.0000000E+000	0.0000000E+000	0.0000000E+000	-6.7850528E+000	0.0000000E+000	0.0000000E+000	0.0000000E+000	6.7850528E+000	8.4049006E+000	8.3214951E+001	6.900228453014909E-005
1.3897710E+002	4.1046524E+002	5.4389015E+001	4.1405298E+002	-7.5480514E+000	02/16/2024 15:21:46.5486	7.8317720E-001	3.5700703E-001	2.1055508E+001	3.6330909E-001	1.000000000000000E+000	12	1.0348643E-002	2.4993524E-005	0	1.922479339298239E-003	2.3942229E-003	3.1724837E-004	2.4151499E-003	7.5480514E+000	3.6330902E+002	2.7418357E+003	2.7658013E+003	-8.2451950E+001	0.0000000E+000	0.0000000E+000	0.0000000E+000	8.2451950E+001	0.0000000E+000	0.0000000E+000	0.0000000E+000	-8.2451950E+001	0.0000000E+000	0.0000000E+000	0.0000000E+000	-7.5480514E+000	0.0000000E+000	0.0000000E+000	0.0000000E+000	7.5480514E+000	7.5468407E+000	8.2451950E+001	6.861841306880691E-005
1.0003201E+002	4.2430920E+002	5.9427349E+001	4.2845059E+002	-7.9727969E+000	02/16/2024 15:21:47.2451	7.8315705E-001	3.5686517E-001	2.6772860E+001	5.1506972E-001	1.000000000000000E+000	12	1.0335791E-002	2.4123647E-005	0	1.990640756553421E-003	2.3114311E-003	3.2373142E-004	2.3339915E-003	7.9727969E+000	5.1506946E+002	3.6775796E+003	3.7134739E+003	-8.2027206E+001	0.0000000E+000	0.0000000E+000	0.0000000E+000	8.2027206E+001	0.0000000E+000	0.0000000E+000	0.0000000E+000	-8.2027206E+001	0.0000000E+000	0.0000000E+000	0.0000000E+000	-7.9727969E+000	0.0000000E+000	0.0000000E+000	0.0000000E+000	7.9727969E+000	7.1399651E+000	8.2027206E+001	6.816141725518154E-005
7.1957260E+001	4.3750787E+002	5.8021763E+001	4.4133850E+002	-7.5544138E+000	02/16/2024 15:21:47.9277	7.8315151E-001	3.5658225E-001	3.8120148E+001	6.5885949E-001	1.000000000000000E+000	12	1.0333668E-002	2.3414383E-005	0	2.057358767380188E-003	2.2461680E-003	2.9788408E-004	2.2658345E-003	7.5544138E+000	6.5885944E+002	4.9680713E+003	5.0115693E+003	-8.2445587E+001	0.0000000E+000	0.0000000E+000	0.0000000E+000	8.2445587E+001	0.0000000E+000	0.0000000E+000	0.0000000E+000	-8.2445587E+001	0.0000000E+000	0.0000000E+000	0.0000000E+000	-7.5544138E+000	0.0000000E+000	0.0000000E+000	0.0000000E+000	7.5544138E+000	7.5404100E+000	8.2445587E+001	6.671801082676690E-005
5.1807030E+001	4.6011029E+002	5.1765656E+001	4.6301312E+002	-6.4191866E+000	02/16/2024 15:21:48.6022	7.8319246E-001	3.5677707E-001	5.9345764E+001	7.4179959E-001	1.000000000000000E+000	12	1.0310212E-002	2.2267646E-005	0	2.123451641615264E-003	2.1462254E-003	2.4146552E-004	2.1597659E-003	6.4191866E+000	7.4179987E+002	6.5933594E+003	6.6349570E+003	-8.3580811E+001	0.0000000E+000	0.0000000E+000	0.0000000E+000	8.3580811E+001	0.0000000E+000	0.0000000E+000	0.0000000E+000	-8.3580811E+001	0.0000000E+000	0.0000000E+000	0.0000000E+000	-6.4191866E+000	0.0000000E+000	0.0000000E+000	0.0000000E+000	6.4191866E+000	8.8883314E+000	8.3580811E+001	6.609287423507606E-005
3.7253067E+001	4.7938785E+002	5.5470432E+001	4.8258646E+002	-6.6003966E+000	02/16/2024 15:21:49.2630	7.8314435E-001	3.5661000E-001	7.7018768E+001	1.0175819E+000	1.000000000000000E+000	12	1.0339753E-002	2.1425700E-005	0	2.187936559420816E-003	2.0584331E-003	2.3818329E-004	2.0721676E-003	6.6003966E+000	1.0175817E+003	8.7941709E+003	8.8528477E+003	-8.3399605E+001	0.0000000E+000	0.0000000E+000	0.0000000E+000	8.3399605E+001	0.0000000E+000	0.0000000E+000	0.0000000E+000	-8.3399605E+001	0.0000000E+000	0.0000000E+000	0.0000000E+000	-6.6003966E+000	0.0000000E+000	0.0000000E+000	0.0000000E+000	6.6003966E+000	8.6422234E+000	8.3399605E+001	6.448491780555255E-005
2.6828640E+001	4.8725369E+002	5.2680717E+001	4.9009326E+002	-6.1707149E+000	02/16/2024 15:21:49.9195	7.8315413E-001	3.5622609E-001	1.1260814E+002	1.3011150E+000	1.000000000000000E+000	12	1.0350652E-002	2.1119760E-005	0	2.252084988081653E-003	2.0286057E-003	2.1932805E-004	2.0404279E-003	6.1707149E+000	1.3011151E+003	1.2034252E+004	1.2104385E+004	-8.3829285E+001	0.0000000E+000	0.0000000E+000	0.0000000E+000	8.3829285E+001	0.0000000E+000	0.0000000E+000	0.0000000E+000	-8.3829285E+001	0.0000000E+000	0.0000000E+000	0.0000000E+000	-6.1707149E+000	0.0000000E+000	0.0000000E+000	0.0000000E+000	6.1707149E+000	9.2491846E+000	8.3829285E+001	6.414842866083684E-005
1.9313969E+001	5.0020184E+002	3.5591175E+001	5.0146646E+002	-4.0699434E+000	02/16/2024 15:21:50.6373	7.8313476E-001	3.5601145E-001	2.3152948E+002	1.1662916E+000	1.000000000000000E+000	12	1.0315620E-002	2.0570908E-005	0	2.322262420545850E-003	1.9891225E-003	1.4153328E-004	1.9941514E-003	4.0699434E+000	1.1662924E+003	1.6391174E+004	1.6432615E+004	-8.5930054E+001	0.0000000E+000	0.0000000E+000	0.0000000E+000	8.5930054E+001	0.0000000E+000	0.0000000E+000	0.0000000E+000	-8.5930054E+001	0.0000000E+000	0.0000000E+000	0.0000000E+000	-4.0699434E+000	0.0000000E+000	0.0000000E+000	0.0000000E+000	4.0699434E+000	1.4054097E+001	8.5930054E+001	7.017743246419666E-005
1.3884775E+001	5.0870883E+002	3.4039310E+001	5.0984641E+002	-3.8281345E+000	02/16/2024 15:21:51.3842	7.8318155E-001	3.5611022E-001	3.3674451E+002	1.5010090E+000	1.000000000000000E+000	12	1.0303786E-002	2.0209589E-005	0	2.395271354016518E-003	1.9569988E-003	1.3094896E-004	1.9613751E-003	3.8281345E+000	1.5010083E+003	2.2432199E+004	2.2482361E+004	-8.6171867E+001	0.0000000E+000	0.0000000E+000	0.0000000E+000	8.6171867E+001	0.0000000E+000	0.0000000E+000	0.0000000E+000	-8.6171867E+001	0.0000000E+000	0.0000000E+000	0.0000000E+000	-3.8281345E+000	0.0000000E+000	0.0000000E+000	0.0000000E+000	3.8281345E+000	1.4944745E+001	8.6171867E+001	7.300893347066822E-005
1.0003201E+001	5.1519055E+002	2.6748497E+001	5.1588446E+002	-2.9721065E+000	02/16/2024 15:21:52.0791	7.8317726E-001	3.5595793E-001	5.9481476E+002	1.5991000E+000	1.000000000000000E+000	12	1.0320828E-002	2.0006086E-005	0	2.463274265424530E-003	1.9358111E-003	1.0050658E-004	1.9384185E-003	2.9721065E+000	1.5991002E+003	3.0799531E+004	3.0841016E+004	-8.7027893E+001	0.0000000E+000	0.0000000E+000	0.0000000E+000	8.7027893E+001	0.0000000E+000	0.0000000E+000	0.0000000E+000	-8.7027893E+001	0.0000000E+000	0.0000000E+000	0.0000000E+000	-2.9721065E+000	0.0000000E+000	0.0000000E+000	0.0000000E+000	2.9721065E+000	1.9260542E+001	8.7027893E+001	6.800291140801173E-005
7.1938338E+000	5.2015997E+002	1.9101185E+001	5.2051056E+002	-2.1030564E+000	02/16/2024 15:21:52.5930	7.8317356E-001	3.5594699E-001	1.1582423E+003	1.5597714E+000	1.000000000000000E+000	12	1.0327017E-002	1.9840169E-005	0	2.513454592355210E-003	1.9198966E-003	7.0501970E-005	1.9211906E-003	2.1030564E+000	1.5597726E+003	4.2475410E+004	4.2504039E+004	-8.7896942E+001	0.0000000E+000	0.0000000E+000	0.0000000E+000	8.7896942E+001	0.0000000E+000	0.0000000E+000	0.0000000E+000	-8.7896942E+001	0.0000000E+000	0.0000000E+000	0.0000000E+000	-2.1030564E+000	0.0000000E+000	0.0000000E+000	0.0000000E+000	2.1030564E+000	2.7231817E+001	8.7896942E+001	5.018032693068037E-005
5.1807032E+000	5.2362555E+002	1.5504709E+001	5.2385504E+002	-1.6960496E+000	02/16/2024 15:21:53.2701	7.8321898E-001	3.5583153E-001	1.9813801E+003	1.7356925E+000	1.000000000000000E+000	12	1.0316735E-002	1.9693874E-005	0	2.579175778303596E-003	1.9080887E-003	5.6499077E-005	1.9089250E-003	1.6960496E+000	1.7356954E+003	5.8617863E+004	5.8643555E+004	-8.8303947E+001	0.0000000E+000	0.0000000E+000	0.0000000E+000	8.8303947E+001	0.0000000E+000	0.0000000E+000	0.0000000E+000	-8.8303947E+001	0.0000000E+000	0.0000000E+000	0.0000000E+000	-1.6960496E+000	0.0000000E+000	0.0000000E+000	0.0000000E+000	1.6960496E+000	3.3772034E+001	8.8303947E+001	6.572118594838595E-005
3.7273378E+000	5.2193652E+002	9.7254915E+000	5.2202710E+002	-1.0674961E+000	02/16/2024 15:21:54.1756	7.8317016E-001	3.5552144E-001	4.3904580E+003	1.5238662E+000	1.000000000000000E+000	12	1.0311915E-002	1.9753601E-005	0	2.667739946702967E-003	1.9152769E-003	3.5688267E-005	1.9156093E-003	1.0674961E+000	1.5238679E+003	8.1781102E+004	8.1795297E+004	-8.8932503E+001	0.0000000E+000	0.0000000E+000	0.0000000E+000	8.8932503E+001	0.0000000E+000	0.0000000E+000	0.0000000E+000	-8.8932503E+001	0.0000000E+000	0.0000000E+000	0.0000000E+000	-1.0674961E+000	0.0000000E+000	0.0000000E+000	0.0000000E+000	1.0674961E+000	5.3666851E+001	8.8932503E+001	8.856416839937145E-005
2.6847079E+000	5.2210516E+002	7.7013535E+000	5.2216199E+002	-8.4508461E-001	02/16/2024 15:21:55.4040	7.8315556E-001	3.5543808E-001	7.6976118E+003	1.6744788E+000	1.000000000000000E+000	12	1.0292909E-002	1.9712099E-005	0	2.788242831662207E-003	1.9149062E-003	2.8245973E-005	1.9151145E-003	8.4508461E-001	1.6744799E+003	1.1351953E+005	1.1353188E+005	-8.9154915E+001	0.0000000E+000	0.0000000E+000	0.0000000E+000	8.9154915E+001	0.0000000E+000	0.0000000E+000	0.0000000E+000	-8.9154915E+001	0.0000000E+000	0.0000000E+000	0.0000000E+000	-8.4508461E-001	0.0000000E+000	0.0000000E+000	0.0000000E+000	8.4508461E-001	6.7793945E+001	8.9154915E+001	1.205028849592393E-004
1.9299656E+000	5.2390802E+002	6.9325075E+000	5.2395386E+002	-7.5811064E-001	02/16/2024 15:21:57.0801	7.8316480E-001	3.5510632E-001	1.1895432E+004	2.0824511E+000	1.000000000000000E+000	12	1.0320364E-002	1.9697087E-005	0	2.952324955689165E-003	1.9083980E-003	2.5252493E-005	1.9085651E-003	7.5811064E-001	2.0824495E+003	1.5737636E+005	1.5739014E+005	-8.9241890E+001	0.0000000E+000	0.0000000E+000	0.0000000E+000	8.9241890E+001	0.0000000E+000	0.0000000E+000	0.0000000E+000	-8.9241890E+001	0.0000000E+000	0.0000000E+000	0.0000000E+000	-7.5811064E-001	0.0000000E+000	0.0000000E+000	0.0000000E+000	7.5811064E-001	7.5572655E+001	8.9241890E+001	1.640821240269578E-004
1.3881482E+000	5.2215558E+002	5.4918280E+000	5.2218445E+002	-6.0259235E-001	02/16/2024 15:21:59.3838	7.8315419E-001	3.5472670E-001	2.0876967E+004	2.3091564E+000	1.000000000000000E+000	12	1.0313503E-002	1.9750691E-005	0	3.177822250048753E-003	1.9149262E-003	2.0140444E-005	1.9150322E-003	6.0259235E-001	2.3091567E+003	2.1955147E+005	2.1956361E+005	-8.9397408E+001	0.0000000E+000	0.0000000E+000	0.0000000E+000	8.9397408E+001	0.0000000E+000	0.0000000E+000	0.0000000E+000	-8.9397408E+001	0.0000000E+000	0.0000000E+000	0.0000000E+000	-6.0259235E-001	0.0000000E+000	0.0000000E+000	0.0000000E+000	6.0259235E-001	9.5078651E+001	8.9397408E+001	2.254972943595882E-004
1.0000639E+000	5.2164258E+002	1.2603298E+000	5.2164410E+002	-1.3843088E-001	02/16/2024 15:22:02.5540	7.8318244E-001	3.5418984E-001	1.2627231E+005	7.3710269E-001	1.000000000000000E+000	12	1.0307642E-002	1.9759913E-005	0	3.489091286432761E-003	1.9170103E-003	4.6316491E-006	1.9170159E-003	1.3843088E-001	7.3708600E+002	3.0508219E+005	3.0508306E+005	-8.9861572E+001	0.0000000E+000	0.0000000E+000	0.0000000E+000	8.9861572E+001	0.0000000E+000	0.0000000E+000	0.0000000E+000	-8.9861572E+001	0.0000000E+000	0.0000000E+000	0.0000000E+000	-1.3843088E-001	0.0000000E+000	0.0000000E+000	0.0000000E+000	1.3843088E-001	4.1389371E+002	8.9861572E+001	3.112690363840085E-004
7.2017908E-001	5.2360724E+002	-4.5625994E-001	5.2360742E+002	4.9926281E-002	02/16/2024 15:22:06.9307	7.8318185E-001	3.5348168E-001	-4.8435888E+005	-3.6777344E-001	1.000000000000000E+000	12	1.0318728E-002	1.9706993E-005	0	3.919037080784897E-003	1.9098271E-003	-1.6641817E-006	1.9098278E-003	-4.9926281E-002	-3.6777698E+002	4.2205953E+005	4.2205969E+005	-9.0049927E+001	0.0000000E+000	0.0000000E+000	0.0000000E+000	9.0049927E+001	0.0000000E+000	0.0000000E+000	0.0000000E+000	-9.0049927E+001	0.0000000E+000	0.0000000E+000	0.0000000E+000	4.9926281E-002	0.0000000E+000	0.0000000E+000	0.0000000E+000	-4.9926281E-002	1.1476073E+003	8.9950073E+001	4.299457943521359E-004
5.1752120E-001	5.2578876E+002	-1.0054022E+000	5.2578973E+002	1.0955965E-001	02/16/2024 15:22:12.9957	7.8317797E-001	3.5251760E-001	-3.0588075E+005	-1.1184269E+000	1.000000000000000E+000	12	1.0307129E-002	1.9603140E-005	0	4.513443222083927E-003	1.9018975E-003	-3.6367683E-006	1.9019010E-003	-1.0955965E-001	-1.1184111E+003	5.8489656E+005	5.8489763E+005	-9.0109558E+001	0.0000000E+000	0.0000000E+000	0.0000000E+000	9.0109558E+001	0.0000000E+000	0.0000000E+000	0.0000000E+000	-9.0109558E+001	0.0000000E+000	0.0000000E+000	0.0000000E+000	1.0955965E-001	0.0000000E+000	0.0000000E+000	0.0000000E+000	-1.0955965E-001	5.2296362E+002	8.9890442E+001	5.944061412990302E-004
3.7244946E-001	5.2727765E+002	1.1731956E+000	5.2727893E+002	-1.2748322E-001	02/16/2024 15:22:21.3987	7.8318429E-001	3.5121223E-001	3.6423556E+005	1.8031937E+000	1.000000000000000E+000	12	1.0305579E-002	1.9544834E-005	0	5.333157327219870E-003	1.8965248E-003	4.2197780E-006	1.8965295E-003	1.2748322E-001	1.8031420E+003	8.1042219E+005	8.1042419E+005	-8.9872520E+001	0.0000000E+000	0.0000000E+000	0.0000000E+000	8.9872520E+001	0.0000000E+000	0.0000000E+000	0.0000000E+000	-8.9872520E+001	0.0000000E+000	0.0000000E+000	0.0000000E+000	-1.2748322E-001	0.0000000E+000	0.0000000E+000	0.0000000E+000	1.2748322E-001	4.4943710E+002	8.9872520E+001	8.197141051359425E-004
2.6843393E-001	5.2664526E+002	4.4063201E+000	5.2666370E+002	-4.7936946E-001	02/16/2024 15:22:33.0302	7.8318942E-001	3.4945551E-001	1.3455713E+005	9.4187222E+000	1.000000000000000E+000	12	1.0310890E-002	1.9577750E-005	0	6.461282209904981E-003	1.8986784E-003	1.5885807E-005	1.8987448E-003	4.7936946E-001	9.4187363E+003	1.1257299E+006	1.1257693E+006	-8.9520630E+001	0.0000000E+000	0.0000000E+000	0.0000000E+000	8.9520630E+001	0.0000000E+000	0.0000000E+000	0.0000000E+000	-8.9520630E+001	0.0000000E+000	0.0000000E+000	0.0000000E+000	-4.7936946E-001	0.0000000E+000	0.0000000E+000	0.0000000E+000	4.7936946E-001	1.1952043E+002	8.9520630E+001	1.128124882685111E-003
1.9284412E-001	5.2418402E+002	5.6267490E+000	5.2421423E+002	-6.1500651E-001	02/16/2024 15:22:49.1994	7.8317857E-001	3.4716192E-001	1.4667503E+005	1.6898714E+001	1.000000000000000E+000	12	1.0308764E-002	1.9665174E-005	0	8.019297131500491E-003	1.9075072E-003	2.0475756E-005	1.9076171E-003	6.1500651E-001	1.6898686E+004	1.5742724E+006	1.5743631E+006	-8.9384995E+001	0.0000000E+000	0.0000000E+000	0.0000000E+000	8.9384995E+001	0.0000000E+000	0.0000000E+000	0.0000000E+000	-8.9384995E+001	0.0000000E+000	0.0000000E+000	0.0000000E+000	-6.1500651E-001	0.0000000E+000	0.0000000E+000	0.0000000E+000	6.1500651E-001	9.3159302E+001	8.9384995E+001	1.558014921595510E-003
1.3893336E-001	5.2003021E+002	3.7359455E+000	5.2004364E+002	-4.1161114E-001	02/16/2024 15:23:11.6186	7.8318173E-001	3.4416571E-001	3.0662888E+005	1.5824665E+001	1.000000000000000E+000	12	1.0307094E-002	1.9819672E-005	0	1.016372465287752E-002	1.9228660E-003	1.3814049E-005	1.9229156E-003	4.1161114E-001	1.5824757E+004	2.2027370E+006	2.2027938E+006	-8.9588387E+001	0.0000000E+000	0.0000000E+000	0.0000000E+000	8.9588387E+001	0.0000000E+000	0.0000000E+000	0.0000000E+000	-8.9588387E+001	0.0000000E+000	0.0000000E+000	0.0000000E+000	-4.1161114E-001	0.0000000E+000	0.0000000E+000	0.0000000E+000	4.1161114E-001	1.3919641E+002	8.9588387E+001	2.144427521377026E-003
9.9904090E-002	5.1876031E+002	-2.3994703E+000	5.1876587E+002	2.6501361E-001	02/16/2024 15:23:42.7714	7.8317922E-001	3.4038597E-001	-6.6392881E+005	-1.4203961E+001	1.000000000000000E+000	12	1.0309046E-002	1.9872252E-005	0	1.311695687334964E-002	1.9276313E-003	-8.9160521E-006	1.9276519E-003	-2.6501361E-001	-1.4204015E+004	3.0708655E+006	3.0708983E+006	-9.0265015E+001	0.0000000E+000	0.0000000E+000	0.0000000E+000	9.0265015E+001	0.0000000E+000	0.0000000E+000	0.0000000E+000	-9.0265015E+001	0.0000000E+000	0.0000000E+000	0.0000000E+000	2.6501361E-001	0.0000000E+000	0.0000000E+000	0.0000000E+000	-2.6501361E-001	2.1619785E+002	8.9734985E+001	2.953232220472122E-003