EC-Lab ASCII FILE
Nb header lines : 65                          

Potentio Electrochemical Impedance Spectroscopy

Run on channel : 1 (SN 6813)
User : 
CE vs. WE compliance from -10 V to 10 V
Electrode connection : standard
Potential control : Ewe
Ewe ctrl range : min = -1.00 V, max = 1.00 V
Safety Limits :
	Do not start on E overload
Acquisition started on : 02/16/2024 15:25:18.455
Technique started on : 02/16/2024 15:25:19.627
Loaded Setting File :  NONE
Saved on :
	File : 12 2EL413 RVC EtOH TBA-BF4_(under Ar) solidstateref+faradaiccage EIS 0-6.mpr
	Directory : C:\Users\VSP\Documents\EC-Lab\Data\Louis\2024 02 16\
	Host : 10.10.11.222
Device : VSP (SN 0301)
Address : USB
EC-Lab for windows v11.50 (software)
Internet server v11.50 (firmware)
Command interpretor v11.50 (firmware)
Electrode material : 
Initial state : 
Electrolyte : 
Comments : 
Current amplifier : Low Current
Electrode surface area : 0.001 cm²
Characteristic mass : 0.001 g
Equivalent Weight : 0.000 g/eq.
Density : 0.000 g/cm3
Volume (V) : 0.001 cm³
Cycle Definition : Charge/Discharge alternance
Mode                Single sine         
E (V)               0.6000              
vs.                 Eoc                 
tE (h:m:s)          0:00:0.0000         
record              0                   
dI                  0.000               
unit dI             mA                  
dt (s)              0.000               
fi                  1.000               
unit fi             MHz                 
ff                  0.100               
unit ff             Hz                  
Nd                  50                  
Points              from fi to ff       
spacing             Logarithmic         
Va (mV)             10.0                
pw                  0.10                
Na                  3                   
corr                0                   
E range min (V)     -1.000              
E range max (V)     1.000               
I Range             Auto                
Bandwidth           4                   
nc cycles           0                   
goto Ns'            0                   
nr cycles           0                   
inc. cycle          0                   

freq/Hz	Re(Z)/Ohm	-Im(Z)/Ohm	|Z|/Ohm	Phase(Z)/deg	time/s	<Ewe>/V	<I>/mA	Cs/µF	Cp/µF	cycle number	I Range	|Ewe|/V	|I|/A	Ns	(Q-Qo)/mA.h	Re(Y)/Ohm-1	Im(Y)/Ohm-1	|Y|/Ohm-1	Phase(Y)/deg	Re(C)/nF	Im(C)/nF	|C|/nF	Phase(C)/deg	Re(M)	Im(M)	|M|	Phase(M)/deg	Re(Permittivity)	Im(Permittivity)	|Permittivity|	Phase(Permittivity)/deg	Re(Resistivity)/Ohm.cm	Im(Resistivity)/Ohm.cm	|Resistivity|/Ohm.cm	Phase(Resistivity)/deg	Re(Conductivity)/mS/cm	Im(Conductivity)/mS/cm	|Conductivity|/mS/cm	Phase(Conductivity)/deg	Tan(Delta)	Loss Angle(Delta)/deg	dq/mA.h	
1.0000186E+006	-3.0782135E+002	-1.1281165E+002	3.2784210E+002	1.5987291E+002	02/16/2024 15:25:19.6267	7.7052796E-001	3.2698363E-001	-1.4107761E-003	-1.6704619E-004	1.000000000000000E+000	12	1.1365043E-003	3.4666211E-006	0	7.562303206057146E-005	-2.8639752E-003	-1.0496018E-003	3.0502488E-003	-1.5987291E+002	-1.6704623E-001	-4.5580736E-001	4.8545319E-001	1.1012709E+002	0.0000000E+000	0.0000000E+000	0.0000000E+000	-1.1012709E+002	0.0000000E+000	0.0000000E+000	0.0000000E+000	1.1012709E+002	0.0000000E+000	0.0000000E+000	0.0000000E+000	1.5987291E+002	0.0000000E+000	0.0000000E+000	0.0000000E+000	-1.5987291E+002	2.7286308E+000	6.9872910E+001	7.562303206057146E-005
7.1968713E+005	-2.2701906E+002	3.5777972E+002	4.2372632E+002	-1.2239602E+002	02/16/2024 15:25:20.2047	7.7098781E-001	3.2638514E-001	6.1810273E-004	4.4067789E-004	1.000000000000000E+000	12	1.2362493E-003	2.9175656E-006	0	1.271897187257612E-004	-1.2644203E-003	1.9927137E-003	2.3600140E-003	1.2239602E+002	4.4067791E-001	-2.7961975E-001	5.2190441E-001	3.2396019E+001	0.0000000E+000	0.0000000E+000	0.0000000E+000	-3.2396019E+001	0.0000000E+000	0.0000000E+000	0.0000000E+000	3.2396019E+001	0.0000000E+000	0.0000000E+000	0.0000000E+000	-1.2239602E+002	0.0000000E+000	0.0000000E+000	0.0000000E+000	1.2239602E+002	6.3452184E-001	3.2396027E+001	5.156668666518978E-005
5.1794463E+005	4.7156651E+001	1.5634492E+002	1.6330182E+002	-7.3215675E+001	02/16/2024 15:25:21.7667	7.7116948E-001	3.2534447E-001	1.9654094E-003	1.8015178E-003	1.000000000000000E+000	11	2.5433116E-003	1.5574300E-005	0	2.597296741120841E-004	1.7683200E-003	5.8627548E-003	6.1236303E-003	7.3215675E+001	1.8015178E+000	5.4337251E-001	1.8816801E+000	-1.6784325E+001	0.0000000E+000	0.0000000E+000	0.0000000E+000	1.6784325E+001	0.0000000E+000	0.0000000E+000	0.0000000E+000	-1.6784325E+001	0.0000000E+000	0.0000000E+000	0.0000000E+000	-7.3215675E+001	0.0000000E+000	0.0000000E+000	0.0000000E+000	7.3215675E+001	3.0161932E-001	1.6784332E+001	1.325399553863228E-004
3.7276388E+005	8.5493134E+001	1.2012492E+002	1.4744176E+002	-5.4560471E+001	02/16/2024 15:25:22.3457	7.7112621E-001	3.2434350E-001	3.5542930E-003	2.3592741E-003	1.000000000000000E+000	11	3.9170305E-003	2.6566629E-005	0	3.112004720209936E-004	3.9326944E-003	5.5257613E-003	6.7823390E-003	5.4560471E+001	2.3592744E+000	1.6790999E+000	2.8957818E+000	-3.5439529E+001	0.0000000E+000	0.0000000E+000	0.0000000E+000	3.5439529E+001	0.0000000E+000	0.0000000E+000	0.0000000E+000	-3.5439529E+001	0.0000000E+000	0.0000000E+000	0.0000000E+000	-5.4560471E+001	0.0000000E+000	0.0000000E+000	0.0000000E+000	5.4560471E+001	7.1170193E-001	3.5439529E+001	5.147079790890954E-005
2.6826938E+005	9.6161308E+001	1.0328777E+002	1.4112180E+002	-4.7046349E+001	02/16/2024 15:25:22.9237	7.7101457E-001	3.2360035E-001	5.7438104E-003	3.0768742E-003	1.000000000000000E+000	11	5.8157104E-003	4.1210576E-005	0	3.627462563299761E-004	4.8284996E-003	5.1863366E-003	7.0860777E-003	4.7046349E+001	3.0768740E+000	2.8645816E+000	4.2039247E+000	-4.2953651E+001	0.0000000E+000	0.0000000E+000	0.0000000E+000	4.2953651E+001	0.0000000E+000	0.0000000E+000	0.0000000E+000	-4.2953651E+001	0.0000000E+000	0.0000000E+000	0.0000000E+000	-4.7046349E+001	0.0000000E+000	0.0000000E+000	0.0000000E+000	4.7046349E+001	9.3100381E-001	4.2953644E+001	5.154578430898251E-005
1.9306711E+005	1.0577071E+002	9.6990219E+001	1.4350800E+002	-4.2520378E+001	02/16/2024 15:25:23.5027	7.7095932E-001	3.2361677E-001	8.4993150E-003	3.8822866E-003	1.000000000000000E+000	11	8.7943021E-003	6.1280924E-005	0	4.142333997884901E-004	5.1358603E-003	4.7095101E-003	6.9682528E-003	4.2520378E+001	3.8822865E+000	4.2337484E+000	5.7442818E+000	-4.7479622E+001	0.0000000E+000	0.0000000E+000	0.0000000E+000	4.7479622E+001	0.0000000E+000	0.0000000E+000	0.0000000E+000	-4.7479622E+001	0.0000000E+000	0.0000000E+000	0.0000000E+000	-4.2520378E+001	0.0000000E+000	0.0000000E+000	0.0000000E+000	4.2520378E+001	1.0905296E+000	4.7479614E+001	5.148714345851397E-005
1.3894559E+005	1.1879110E+002	9.6914131E+001	1.5330908E+002	-3.9208828E+001	02/16/2024 15:25:24.0817	7.7098364E-001	3.2354733E-001	1.1819204E-002	4.7230949E-003	1.000000000000000E+000	11	1.0250146E-002	6.6859349E-005	0	4.646793798649887E-004	5.0541502E-003	4.1233613E-003	6.5227710E-003	3.9208828E+001	4.7230954E+000	5.7892661E+000	7.4714947E+000	-5.0791172E+001	0.0000000E+000	0.0000000E+000	0.0000000E+000	5.0791172E+001	0.0000000E+000	0.0000000E+000	0.0000000E+000	-5.0791172E+001	0.0000000E+000	0.0000000E+000	0.0000000E+000	-3.9208828E+001	0.0000000E+000	0.0000000E+000	0.0000000E+000	3.9208828E+001	1.2257355E+000	5.0791168E+001	5.044598007649862E-005
1.0000371E+005	1.3385368E+002	1.0171915E+002	1.6811780E+002	-3.7232220E+001	02/16/2024 15:25:24.6607	7.7103311E-001	3.2293090E-001	1.5645925E-002	5.7276879E-003	1.000000000000000E+000	11	1.0670349E-002	6.3469481E-005	0	5.157251763781500E-004	4.7359043E-003	3.5989464E-003	5.9482101E-003	3.7232220E+001	5.7276888E+000	7.5371461E+000	9.4665194E+000	-5.2767780E+001	0.0000000E+000	0.0000000E+000	0.0000000E+000	5.2767780E+001	0.0000000E+000	0.0000000E+000	0.0000000E+000	-5.2767780E+001	0.0000000E+000	0.0000000E+000	0.0000000E+000	-3.7232220E+001	0.0000000E+000	0.0000000E+000	0.0000000E+000	3.7232220E+001	1.3159143E+000	5.2767776E+001	5.104579651316131E-005
7.1964070E+004	1.5256447E+002	1.0993975E+002	1.8804964E+002	-3.5776966E+001	02/16/2024 15:25:25.2387	7.7103990E-001	3.2219934E-001	2.0116372E-002	6.8756561E-003	1.000000000000000E+000	11	1.0656695E-002	5.6669585E-005	0	5.666974684342697E-004	4.3142806E-003	3.1089215E-003	5.3177448E-003	3.5776966E+001	6.8756561E+000	9.5414143E+000	1.1760665E+001	-5.4223034E+001	0.0000000E+000	0.0000000E+000	0.0000000E+000	5.4223034E+001	0.0000000E+000	0.0000000E+000	0.0000000E+000	-5.4223034E+001	0.0000000E+000	0.0000000E+000	0.0000000E+000	-3.5776966E+001	0.0000000E+000	0.0000000E+000	0.0000000E+000	3.5776966E+001	1.3877097E+000	5.4223038E+001	5.097229205611967E-005
5.1792605E+004	1.7727728E+002	1.1987754E+002	2.1400435E+002	-3.4067142E+001	02/16/2024 15:25:25.8177	7.7105910E-001	3.2204291E-001	2.5633892E-002	8.0434987E-003	1.000000000000000E+000	11	1.0706674E-002	5.0030172E-005	0	6.175674786502981E-004	3.8708637E-003	2.6175356E-003	4.6728021E-003	3.4067142E+001	8.0434990E+000	1.1894886E+001	1.4359184E+001	-5.5932858E+001	0.0000000E+000	0.0000000E+000	0.0000000E+000	5.5932858E+001	0.0000000E+000	0.0000000E+000	0.0000000E+000	-5.5932858E+001	0.0000000E+000	0.0000000E+000	0.0000000E+000	-3.4067142E+001	0.0000000E+000	0.0000000E+000	0.0000000E+000	3.4067142E+001	1.4788198E+000	5.5932861E+001	5.087001021602839E-005
3.7271750E+004	2.1052115E+002	1.2844353E+002	2.4661081E+002	-3.1388275E+001	02/16/2024 15:25:26.3967	7.7107090E-001	3.2229155E-001	3.3245135E-002	9.0183765E-003	1.000000000000000E+000	11	1.0756985E-002	4.3619279E-005	0	6.686608132658068E-004	3.4615572E-003	2.1119714E-003	4.0549724E-003	3.1388275E+001	9.0183764E+000	1.4781274E+001	1.7315229E+001	-5.8611725E+001	0.0000000E+000	0.0000000E+000	0.0000000E+000	5.8611725E+001	0.0000000E+000	0.0000000E+000	0.0000000E+000	-5.8611725E+001	0.0000000E+000	0.0000000E+000	0.0000000E+000	-3.1388275E+001	0.0000000E+000	0.0000000E+000	0.0000000E+000	3.1388275E+001	1.6390172E+000	5.8611725E+001	5.109333461550869E-005
2.6824154E+004	2.4806819E+002	1.2762664E+002	2.7897382E+002	-2.7225008E+001	02/16/2024 15:25:26.9747	7.7107298E-001	3.2226896E-001	4.6489276E-002	9.7299041E-003	1.000000000000000E+000	11	1.0707014E-002	3.8379996E-005	0	7.195382109407607E-004	3.1874562E-003	1.6398890E-003	3.5845658E-003	2.7225008E+001	9.7299032E+000	1.8912037E+001	2.1268196E+001	-6.2774994E+001	0.0000000E+000	0.0000000E+000	0.0000000E+000	6.2774994E+001	0.0000000E+000	0.0000000E+000	0.0000000E+000	-6.2774994E+001	0.0000000E+000	0.0000000E+000	0.0000000E+000	-2.7225008E+001	0.0000000E+000	0.0000000E+000	0.0000000E+000	2.7225008E+001	1.9437022E+000	6.2774994E+001	5.087739767495390E-005
1.9308566E+004	2.8379828E+002	1.1919874E+002	3.0781454E+002	-2.2783001E+001	02/16/2024 15:25:27.5537	7.7111226E-001	3.2159209E-001	6.9150999E-002	1.0369636E-002	1.000000000000000E+000	11	1.0586695E-002	3.4393095E-005	0	7.700904759021392E-004	2.9952389E-003	1.2580369E-003	3.2487095E-003	2.2783001E+001	1.0369637E+001	2.4688890E+001	2.6778175E+001	-6.7216995E+001	0.0000000E+000	0.0000000E+000	0.0000000E+000	6.7216995E+001	0.0000000E+000	0.0000000E+000	0.0000000E+000	-6.7216995E+001	0.0000000E+000	0.0000000E+000	0.0000000E+000	-2.2783001E+001	0.0000000E+000	0.0000000E+000	0.0000000E+000	2.2783001E+001	2.3808832E+000	6.7216995E+001	5.055226496137851E-005
1.3899199E+004	3.1185858E+002	1.0200609E+002	3.2811737E+002	-1.8112448E+001	02/16/2024 15:25:28.1327	7.7105832E-001	3.2100648E-001	1.1225463E-001	1.0849208E-002	1.000000000000000E+000	11	1.0404654E-002	3.1710159E-005	0	8.207552888413225E-004	2.8966714E-003	9.4747473E-004	3.0476898E-003	1.8112448E+001	1.0849209E+001	3.3168789E+001	3.4898048E+001	-7.1887550E+001	0.0000000E+000	0.0000000E+000	0.0000000E+000	7.1887550E+001	0.0000000E+000	0.0000000E+000	0.0000000E+000	-7.1887550E+001	0.0000000E+000	0.0000000E+000	0.0000000E+000	-1.8112448E+001	0.0000000E+000	0.0000000E+000	0.0000000E+000	1.8112448E+001	3.0572546E+000	7.1887550E+001	5.066481293918338E-005
1.0002226E+004	3.3220520E+002	8.2846886E+001	3.4237976E+002	-1.4003057E+001	02/16/2024 15:25:28.7107	7.7105993E-001	3.2097623E-001	1.9206460E-001	1.1245623E-002	1.000000000000000E+000	11	1.0256113E-002	2.9955374E-005	0	8.716539922377269E-004	2.8339373E-003	7.0674054E-004	2.9207333E-003	1.4003057E+001	1.1245625E+001	4.5093483E+001	4.6474575E+001	-7.5996941E+001	0.0000000E+000	0.0000000E+000	0.0000000E+000	7.5996941E+001	0.0000000E+000	0.0000000E+000	0.0000000E+000	-7.5996941E+001	0.0000000E+000	0.0000000E+000	0.0000000E+000	-1.4003057E+001	0.0000000E+000	0.0000000E+000	0.0000000E+000	1.4003057E+001	4.0098696E+000	7.5996941E+001	5.089870339640434E-005
7.1953535E+003	3.4499622E+002	6.5233864E+001	3.5110944E+002	-1.0707400E+001	02/16/2024 15:25:29.4216	7.7107197E-001	3.2124040E-001	3.3907431E-001	1.1704587E-002	1.000000000000000E+000	11	1.0130901E-002	2.8853969E-005	0	9.337984423520716E-004	2.7985258E-003	5.2916131E-004	2.8481148E-003	1.0707400E+001	1.1704583E+001	6.1900948E+001	6.2997814E+001	-7.9292603E+001	0.0000000E+000	0.0000000E+000	0.0000000E+000	7.9292603E+001	0.0000000E+000	0.0000000E+000	0.0000000E+000	-7.9292603E+001	0.0000000E+000	0.0000000E+000	0.0000000E+000	-1.0707400E+001	0.0000000E+000	0.0000000E+000	0.0000000E+000	1.0707400E+001	5.2886062E+000	7.9292603E+001	6.214445011434476E-005
5.1814517E+003	3.5437665E+002	5.2019253E+001	3.5817429E+002	-8.3508577E+000	02/16/2024 15:25:30.3485	7.7109963E-001	3.2059562E-001	5.9047914E-001	1.2455007E-002	1.000000000000000E+000	11	1.0168609E-002	2.8390115E-005	0	1.015036439775832E-003	2.7623349E-003	4.0548551E-004	2.7919370E-003	8.3508577E+000	1.2455012E+001	8.4848656E+001	8.5757927E+001	-8.1649139E+001	0.0000000E+000	0.0000000E+000	0.0000000E+000	8.1649139E+001	0.0000000E+000	0.0000000E+000	0.0000000E+000	-8.1649139E+001	0.0000000E+000	0.0000000E+000	0.0000000E+000	-8.3508577E+000	0.0000000E+000	0.0000000E+000	0.0000000E+000	8.3508577E+000	6.8124132E+000	8.1649139E+001	8.123799742376040E-005
3.7264229E+003	3.5941156E+002	4.1920429E+001	3.6184802E+002	-6.6527076E+000	02/16/2024 15:25:31.0463	7.7106130E-001	3.2045487E-001	1.0188314E+000	1.3674181E-002	1.000000000000000E+000	11	1.0668865E-002	2.9484383E-005	0	1.076473289883160E-003	2.7449830E-003	3.2016460E-004	2.7635912E-003	6.6527076E+000	1.3674186E+001	1.1723779E+002	1.1803255E+002	-8.3347290E+001	0.0000000E+000	0.0000000E+000	0.0000000E+000	8.3347290E+001	0.0000000E+000	0.0000000E+000	0.0000000E+000	-8.3347290E+001	0.0000000E+000	0.0000000E+000	0.0000000E+000	-6.6527076E+000	0.0000000E+000	0.0000000E+000	0.0000000E+000	6.6527076E+000	8.5736609E+000	8.3347290E+001	6.143685010732828E-005
2.6824250E+003	3.6348157E+002	3.5614594E+001	3.6522220E+002	-5.5960832E+000	02/16/2024 15:25:31.7443	7.7109253E-001	3.2021162E-001	1.6659600E+000	1.5841860E-002	1.000000000000000E+000	11	1.0968150E-002	3.0031442E-005	0	1.137641922659150E-003	2.7250098E-003	2.6700148E-004	2.7380593E-003	5.5960832E+000	1.5841864E+001	1.6168159E+002	1.6245584E+002	-8.4403915E+001	0.0000000E+000	0.0000000E+000	0.0000000E+000	8.4403915E+001	0.0000000E+000	0.0000000E+000	0.0000000E+000	-8.4403915E+001	0.0000000E+000	0.0000000E+000	0.0000000E+000	-5.5960832E+000	0.0000000E+000	0.0000000E+000	0.0000000E+000	5.5960832E+000	1.0205973E+001	8.4403915E+001	6.116863277598971E-005
1.9306176E+003	3.6452521E+002	3.0793362E+001	3.6582355E+002	-4.8286119E+000	02/16/2024 15:25:32.9401	7.7106726E-001	3.1896216E-001	2.6771135E+000	1.8968705E-002	1.000000000000000E+000	12	9.5172161E-003	2.6015865E-005	0	1.239777015201563E-003	2.7238568E-003	2.3009852E-004	2.7335584E-003	4.8286119E+000	1.8968710E+001	2.2454745E+002	2.2534723E+002	-8.5171387E+001	0.0000000E+000	0.0000000E+000	0.0000000E+000	8.5171387E+001	0.0000000E+000	0.0000000E+000	0.0000000E+000	-8.5171387E+001	0.0000000E+000	0.0000000E+000	0.0000000E+000	-4.8286119E+000	0.0000000E+000	0.0000000E+000	0.0000000E+000	4.8286119E+000	1.1837786E+001	8.5171387E+001	1.021350925424131E-004
1.3886667E+003	3.6787393E+002	2.8898062E+001	3.6900723E+002	-4.4916034E+000	02/16/2024 15:25:33.6373	7.7105761E-001	3.1877738E-001	3.9660058E+000	2.4323218E-002	1.000000000000000E+000	12	9.8981084E-003	2.6823616E-005	0	1.300749224294954E-003	2.7016513E-003	2.1222619E-004	2.7099741E-003	4.4916034E+000	2.4323202E+001	3.0963593E+002	3.1058981E+002	-8.5508400E+001	0.0000000E+000	0.0000000E+000	0.0000000E+000	8.5508400E+001	0.0000000E+000	0.0000000E+000	0.0000000E+000	-8.5508400E+001	0.0000000E+000	0.0000000E+000	0.0000000E+000	-4.4916034E+000	0.0000000E+000	0.0000000E+000	0.0000000E+000	4.4916034E+000	1.2730056E+001	8.5508400E+001	6.097220909339045E-005
1.0003202E+003	3.7092200E+002	2.7479176E+001	3.7193848E+002	-4.2369280E+000	02/16/2024 15:25:34.3341	7.7108413E-001	3.1863883E-001	5.7899842E+000	3.1604037E-002	1.000000000000000E+000	12	1.0111946E-002	2.7187147E-005	0	1.361478758336711E-003	2.6812688E-003	1.9863760E-004	2.6886167E-003	4.2369280E+000	3.1604057E+001	4.2660059E+002	4.2776965E+002	-8.5763069E+001	0.0000000E+000	0.0000000E+000	0.0000000E+000	8.5763069E+001	0.0000000E+000	0.0000000E+000	0.0000000E+000	-8.5763069E+001	0.0000000E+000	0.0000000E+000	0.0000000E+000	-4.2369280E+000	0.0000000E+000	0.0000000E+000	0.0000000E+000	4.2369280E+000	1.3498294E+001	8.5763069E+001	6.072953404175747E-005
7.1930957E+002	3.7402560E+002	2.7561876E+001	3.7503973E+002	-4.2144976E+000	02/16/2024 15:25:35.0323	7.7106225E-001	3.1848231E-001	8.0277815E+000	4.3356929E-002	1.000000000000000E+000	12	1.0215051E-002	2.7237251E-005	0	1.422335218179677E-003	2.6591741E-003	1.9595402E-004	2.6663842E-003	4.2144976E+000	4.3356953E+001	5.8837067E+002	5.8996600E+002	-8.5785500E+001	0.0000000E+000	0.0000000E+000	0.0000000E+000	8.5785500E+001	0.0000000E+000	0.0000000E+000	0.0000000E+000	-8.5785500E+001	0.0000000E+000	0.0000000E+000	0.0000000E+000	-4.2144976E+000	0.0000000E+000	0.0000000E+000	0.0000000E+000	4.2144976E+000	1.3570397E+001	8.5785500E+001	6.085645984296555E-005
5.1817603E+002	3.7971072E+002	3.1645529E+001	3.8102713E+002	-4.7640862E+000	02/16/2024 15:25:35.7318	7.7106035E-001	3.1831893E-001	9.7057810E+000	6.6948891E-002	1.000000000000000E+000	12	1.0314519E-002	2.7070300E-005	0	1.483330286538222E-003	2.6154176E-003	2.1797190E-004	2.6244849E-003	4.7640862E+000	6.6948853E+001	8.0331128E+002	8.0609625E+002	-8.5235916E+001	0.0000000E+000	0.0000000E+000	0.0000000E+000	8.5235916E+001	0.0000000E+000	0.0000000E+000	0.0000000E+000	-8.5235916E+001	0.0000000E+000	0.0000000E+000	0.0000000E+000	-4.7640862E+000	0.0000000E+000	0.0000000E+000	0.0000000E+000	4.7640862E+000	1.1998875E+001	8.5235916E+001	6.099506835854527E-005
3.7273376E+002	3.8363470E+002	3.6980854E+001	3.8541299E+002	-5.5060720E+000	02/16/2024 15:25:36.4314	7.7105433E-001	3.1813371E-001	1.1546343E+001	1.0630303E-001	1.000000000000000E+000	12	1.0319391E-002	2.6774893E-005	0	1.544405020433465E-003	2.5826478E-003	2.4895693E-004	2.5946193E-003	5.5060720E+000	1.0630305E+002	1.1027743E+003	1.1078860E+003	-8.4493927E+001	0.0000000E+000	0.0000000E+000	0.0000000E+000	8.4493927E+001	0.0000000E+000	0.0000000E+000	0.0000000E+000	-8.4493927E+001	0.0000000E+000	0.0000000E+000	0.0000000E+000	-5.5060720E+000	0.0000000E+000	0.0000000E+000	0.0000000E+000	5.5060720E+000	1.0373874E+001	8.4493927E+001	6.107473389524313E-005
2.6836835E+002	3.8977371E+002	4.2806728E+001	3.9211728E+002	-6.2673669E+000	02/16/2024 15:25:37.1323	7.7104634E-001	3.1801242E-001	1.3854053E+001	1.6510831E-001	1.000000000000000E+000	12	1.0318994E-002	2.6316089E-005	0	1.605628475531664E-003	2.5350153E-003	2.7840695E-004	2.5502574E-003	6.2673669E+000	1.6510825E+002	1.5033823E+003	1.5124216E+003	-8.3732635E+001	0.0000000E+000	0.0000000E+000	0.0000000E+000	8.3732635E+001	0.0000000E+000	0.0000000E+000	0.0000000E+000	-8.3732635E+001	0.0000000E+000	0.0000000E+000	0.0000000E+000	-6.2673669E+000	0.0000000E+000	0.0000000E+000	0.0000000E+000	6.2673669E+000	9.1054306E+000	8.3732635E+001	6.122345509819893E-005
1.9308463E+002	3.9960269E+002	4.9969154E+001	4.0271481E+002	-7.1276731E+000	02/16/2024 15:25:37.8351	7.7103078E-001	3.1792209E-001	1.6495687E+001	2.5396812E-001	1.000000000000000E+000	12	1.0322981E-002	2.5633477E-005	0	1.666911795410589E-003	2.4639573E-003	3.0811070E-004	2.4831467E-003	7.1276731E+000	2.5396805E+002	2.0309800E+003	2.0467974E+003	-8.2872330E+001	0.0000000E+000	0.0000000E+000	0.0000000E+000	8.2872330E+001	0.0000000E+000	0.0000000E+000	0.0000000E+000	-8.2872330E+001	0.0000000E+000	0.0000000E+000	0.0000000E+000	-7.1276731E+000	0.0000000E+000	0.0000000E+000	0.0000000E+000	7.1276731E+000	7.9969873E+000	8.2872330E+001	6.128331987892552E-005
1.3897710E+002	4.1081393E+002	5.7870846E+001	4.1487000E+002	-8.0184231E+000	02/16/2024 15:25:38.5366	7.7108914E-001	3.1785247E-001	1.9788691E+001	3.8504604E-001	1.000000000000000E+000	12	1.0329684E-002	2.4898605E-005	0	1.727989684913081E-003	2.3868280E-003	3.3622945E-004	2.4103937E-003	8.0184231E+000	3.8504611E+002	2.7333672E+003	2.7603545E+003	-8.1981575E+001	0.0000000E+000	0.0000000E+000	0.0000000E+000	8.1981575E+001	0.0000000E+000	0.0000000E+000	0.0000000E+000	-8.1981575E+001	0.0000000E+000	0.0000000E+000	0.0000000E+000	-8.0184231E+000	0.0000000E+000	0.0000000E+000	0.0000000E+000	8.0184231E+000	7.0988064E+000	8.1981575E+001	6.107788950249150E-005
1.0003201E+002	4.2614728E+002	6.4102943E+001	4.3094162E+002	-8.5545444E+000	02/16/2024 15:25:39.2331	7.7105629E-001	3.1768018E-001	2.4820078E+001	5.4918951E-001	1.000000000000000E+000	12	1.0333879E-002	2.3979765E-005	0	1.788651983231380E-003	2.2946836E-003	3.4517638E-004	2.3204999E-003	8.5545444E+000	5.4918933E+002	3.6509338E+003	3.6920085E+003	-8.1445457E+001	0.0000000E+000	0.0000000E+000	0.0000000E+000	8.1445457E+001	0.0000000E+000	0.0000000E+000	0.0000000E+000	-8.1445457E+001	0.0000000E+000	0.0000000E+000	0.0000000E+000	-8.5545444E+000	0.0000000E+000	0.0000000E+000	0.0000000E+000	8.5545444E+000	6.6478581E+000	8.1445457E+001	6.066229831829949E-005
7.1957260E+001	4.4055719E+002	6.6909233E+001	4.4560910E+002	-8.6357527E+000	02/16/2024 15:25:39.9147	7.7105796E-001	3.1740397E-001	3.3056698E+001	7.4528688E-001	1.000000000000000E+000	12	1.0349899E-002	2.3226408E-005	0	1.848060105024679E-003	2.2186774E-003	3.3695967E-004	2.2441193E-003	8.6357527E+000	7.4528656E+002	4.9072671E+003	4.9635391E+003	-8.1364250E+001	0.0000000E+000	0.0000000E+000	0.0000000E+000	8.1364250E+001	0.0000000E+000	0.0000000E+000	0.0000000E+000	-8.1364250E+001	0.0000000E+000	0.0000000E+000	0.0000000E+000	-8.6357527E+000	0.0000000E+000	0.0000000E+000	0.0000000E+000	8.6357527E+000	6.5844007E+000	8.1364250E+001	5.940812179329805E-005
5.1807030E+001	4.6400400E+002	6.2071201E+001	4.6813730E+002	-7.6193929E+000	02/16/2024 15:25:40.5891	7.7111214E-001	3.1767049E-001	4.9492718E+001	8.7011194E-001	1.000000000000000E+000	12	1.0293592E-002	2.1988404E-005	0	1.906910014631970E-003	2.1172650E-003	2.8323289E-004	2.1361255E-003	7.6193929E+000	8.7011182E+002	6.5043911E+003	6.5623315E+003	-8.2380608E+001	0.0000000E+000	0.0000000E+000	0.0000000E+000	8.2380608E+001	0.0000000E+000	0.0000000E+000	0.0000000E+000	-8.2380608E+001	0.0000000E+000	0.0000000E+000	0.0000000E+000	-7.6193929E+000	0.0000000E+000	0.0000000E+000	0.0000000E+000	7.6193929E+000	7.4753509E+000	8.2380608E+001	5.884990960729197E-005
3.7253067E+001	4.8709827E+002	6.5387543E+001	4.9146744E+002	-7.6456175E+000	02/16/2024 15:25:41.2500	7.7105165E-001	3.1752673E-001	6.5337585E+001	1.1565479E+000	1.000000000000000E+000	12	1.0323020E-002	2.1004484E-005	0	1.964317267784603E-003	2.0166340E-003	2.7071076E-004	2.0347228E-003	7.6456175E+000	1.1565475E+003	8.6155928E+003	8.6928730E+003	-8.2354385E+001	0.0000000E+000	0.0000000E+000	0.0000000E+000	8.2354385E+001	0.0000000E+000	0.0000000E+000	0.0000000E+000	-8.2354385E+001	0.0000000E+000	0.0000000E+000	0.0000000E+000	-7.6456175E+000	0.0000000E+000	0.0000000E+000	0.0000000E+000	7.6456175E+000	7.4494047E+000	8.2354385E+001	5.740725315263274E-005
2.6828640E+001	4.9661890E+002	6.3027893E+001	5.0060248E+002	-7.2329679E+000	02/16/2024 15:25:41.9065	7.7109474E-001	3.1717154E-001	9.4121468E+001	1.4919981E+000	1.000000000000000E+000	12	1.0301569E-002	2.0578344E-005	0	2.021456131614341E-003	1.9816970E-003	2.5150512E-004	1.9975931E-003	7.2329679E+000	1.4919987E+003	1.1755976E+004	1.1850275E+004	-8.2767029E+001	0.0000000E+000	0.0000000E+000	0.0000000E+000	8.2767029E+001	0.0000000E+000	0.0000000E+000	0.0000000E+000	-8.2767029E+001	0.0000000E+000	0.0000000E+000	0.0000000E+000	-7.2329679E+000	0.0000000E+000	0.0000000E+000	0.0000000E+000	7.2329679E+000	7.8793511E+000	8.2767029E+001	5.713886382973732E-005
1.9313969E+001	5.1430304E+002	4.5220482E+001	5.1628723E+002	-5.0248523E+000	02/16/2024 15:25:42.6243	7.7111429E-001	3.1696832E-001	1.8222729E+002	1.3979802E+000	1.000000000000000E+000	12	1.0311614E-002	1.9972629E-005	0	2.083933710374591E-003	1.9294624E-003	1.6964944E-004	1.9369064E-003	5.0248523E+000	1.3979794E+003	1.5899555E+004	1.5960896E+004	-8.4975151E+001	0.0000000E+000	0.0000000E+000	0.0000000E+000	8.4975151E+001	0.0000000E+000	0.0000000E+000	0.0000000E+000	-8.4975151E+001	0.0000000E+000	0.0000000E+000	0.0000000E+000	-5.0248523E+000	0.0000000E+000	0.0000000E+000	0.0000000E+000	5.0248523E+000	1.1373232E+001	8.4975151E+001	6.247757876025068E-005
1.3884775E+001	5.2577484E+002	4.2516300E+001	5.2749109E+002	-4.6231108E+000	02/16/2024 15:25:43.3712	7.7109843E-001	3.1710631E-001	2.6960367E+002	1.7514852E+000	1.000000000000000E+000	12	1.0303348E-002	1.9532745E-005	0	2.148919082494362E-003	1.8895987E-003	1.5280064E-004	1.8957666E-003	4.6231108E+000	1.7514840E+003	2.1659619E+004	2.1730320E+004	-8.5376892E+001	0.0000000E+000	0.0000000E+000	0.0000000E+000	8.5376892E+001	0.0000000E+000	0.0000000E+000	0.0000000E+000	-8.5376892E+001	0.0000000E+000	0.0000000E+000	0.0000000E+000	-4.6231108E+000	0.0000000E+000	0.0000000E+000	0.0000000E+000	4.6231108E+000	1.2366429E+001	8.5376892E+001	6.498537211977080E-005
1.0003201E+001	5.3144952E+002	3.2440521E+001	5.3243872E+002	-3.4930911E+000	02/16/2024 15:25:44.0661	7.7107519E-001	3.1698921E-001	4.9044836E+002	1.8206635E+000	1.000000000000000E+000	12	1.0276297E-002	1.9300431E-005	0	2.209489003481744E-003	1.8746611E-003	1.1443229E-004	1.8781504E-003	3.4930911E+000	1.8206619E+003	2.9826611E+004	2.9882127E+004	-8.6506912E+001	0.0000000E+000	0.0000000E+000	0.0000000E+000	8.6506912E+001	0.0000000E+000	0.0000000E+000	0.0000000E+000	-8.6506912E+001	0.0000000E+000	0.0000000E+000	0.0000000E+000	-3.4930911E+000	0.0000000E+000	0.0000000E+000	0.0000000E+000	3.4930911E+000	1.6382275E+001	8.6506912E+001	6.056992098738218E-005
7.1938338E+000	5.3719360E+002	2.5050570E+001	5.3777734E+002	-2.6698997E+000	02/16/2024 15:25:44.5800	7.7106863E-001	3.1705248E-001	8.8316553E+002	1.9163389E+000	1.000000000000000E+000	12	1.0298026E-002	1.9149236E-005	0	2.254165304759401E-003	1.8574871E-003	8.6618893E-005	1.8595057E-003	2.6698997E+000	1.9163386E+003	4.1094676E+004	4.1139332E+004	-8.7330101E+001	0.0000000E+000	0.0000000E+000	0.0000000E+000	8.7330101E+001	0.0000000E+000	0.0000000E+000	0.0000000E+000	-8.7330101E+001	0.0000000E+000	0.0000000E+000	0.0000000E+000	-2.6698997E+000	0.0000000E+000	0.0000000E+000	0.0000000E+000	2.6698997E+000	2.1444366E+001	8.7330101E+001	4.467630127765647E-005
5.1807032E+000	5.4247211E+002	1.9063677E+001	5.4280695E+002	-2.0126729E+000	02/16/2024 15:25:45.2592	7.7104616E-001	3.1688881E-001	1.6114792E+003	1.9876838E+000	1.000000000000000E+000	12	1.0292179E-002	1.8961031E-005	0	2.312716275464039E-003	1.8411390E-003	6.4701722E-005	1.8422756E-003	2.0126729E+000	1.9876831E+003	5.6561121E+004	5.6596035E+004	-8.7987328E+001	0.0000000E+000	0.0000000E+000	0.0000000E+000	8.7987328E+001	0.0000000E+000	0.0000000E+000	0.0000000E+000	-8.7987328E+001	0.0000000E+000	0.0000000E+000	0.0000000E+000	-2.0126729E+000	0.0000000E+000	0.0000000E+000	0.0000000E+000	2.0126729E+000	2.8455797E+001	8.7987328E+001	5.855097070463786E-005
3.7273378E+000	5.4223047E+002	1.3148634E+001	5.4238989E+002	-1.3891023E+000	02/16/2024 15:25:46.1656	7.7107406E-001	3.1666589E-001	3.2474370E+003	1.9084414E+000	1.000000000000000E+000	12	1.0311607E-002	1.9011430E-005	0	2.391544934204062E-003	1.8431504E-003	4.4694847E-005	1.8436922E-003	1.3891023E+000	1.9084370E+003	7.8701344E+004	7.8724477E+004	-8.8610901E+001	0.0000000E+000	0.0000000E+000	0.0000000E+000	8.8610901E+001	0.0000000E+000	0.0000000E+000	0.0000000E+000	-8.8610901E+001	0.0000000E+000	0.0000000E+000	0.0000000E+000	-1.3891023E+000	0.0000000E+000	0.0000000E+000	0.0000000E+000	1.3891023E+000	4.1238541E+001	8.8610901E+001	7.882865874002300E-005
2.6847079E+000	5.4312653E+002	9.0004587E+000	5.4320111E+002	-9.4939405E-001	02/16/2024 15:25:47.3931	7.7108794E-001	3.1666699E-001	6.5865566E+003	1.8082832E+000	1.000000000000000E+000	12	1.0302807E-002	1.8966837E-005	0	2.498930568511158E-003	1.8406861E-003	3.0503055E-005	1.8409388E-003	9.4939405E-001	1.8082836E+003	1.0911962E+005	1.0913460E+005	-8.9050606E+001	0.0000000E+000	0.0000000E+000	0.0000000E+000	8.9050606E+001	0.0000000E+000	0.0000000E+000	0.0000000E+000	-8.9050606E+001	0.0000000E+000	0.0000000E+000	0.0000000E+000	-9.4939405E-001	0.0000000E+000	0.0000000E+000	0.0000000E+000	9.4939405E-001	6.0344315E+001	8.9050606E+001	1.073856343070966E-004
1.9299656E+000	5.4330347E+002	7.1287589E+000	5.4335022E+002	-7.5174260E-001	02/16/2024 15:25:49.0691	7.7108210E-001	3.1641254E-001	1.1567956E+004	1.9912455E+000	1.000000000000000E+000	12	1.0298008E-002	1.8952800E-005	0	2.645118413001803E-003	1.8402751E-003	2.4146502E-005	1.8404336E-003	7.5174260E-001	1.9912372E+003	1.5175861E+005	1.5177167E+005	-8.9248260E+001	0.0000000E+000	0.0000000E+000	0.0000000E+000	8.9248260E+001	0.0000000E+000	0.0000000E+000	0.0000000E+000	-8.9248260E+001	0.0000000E+000	0.0000000E+000	0.0000000E+000	-7.5174260E-001	0.0000000E+000	0.0000000E+000	0.0000000E+000	7.5174260E-001	7.6212914E+001	8.9248260E+001	1.461878444906453E-004
1.3881482E+000	5.4292944E+002	5.3833404E+000	5.4295612E+002	-5.6808960E-001	02/16/2024 15:25:51.3739	7.7106631E-001	3.1613204E-001	2.1297688E+004	2.0936625E+000	1.000000000000000E+000	12	1.0309219E-002	1.8987206E-005	0	2.846114004678805E-003	1.8416789E-003	1.8260907E-005	1.8417694E-003	5.6808960E-001	2.0936726E+003	2.1115347E+005	2.1116384E+005	-8.9431908E+001	0.0000000E+000	0.0000000E+000	0.0000000E+000	8.9431908E+001	0.0000000E+000	0.0000000E+000	0.0000000E+000	-8.9431908E+001	0.0000000E+000	0.0000000E+000	0.0000000E+000	-5.6808960E-001	0.0000000E+000	0.0000000E+000	0.0000000E+000	5.6808960E-001	1.0085364E+002	8.9431908E+001	2.009955916770011E-004
1.0000639E+000	5.4218481E+002	2.5493996E+000	5.4219080E+002	-2.6940772E-001	02/16/2024 15:25:54.5441	7.7108270E-001	3.1581962E-001	6.2424410E+004	1.3801491E+000	1.000000000000000E+000	12	1.0303745E-002	1.9003910E-005	0	3.123556114603028E-003	1.8443489E-003	8.6722875E-006	1.8443692E-003	2.6940772E-001	1.3801569E+003	2.9351850E+005	2.9352175E+005	-8.9730591E+001	0.0000000E+000	0.0000000E+000	0.0000000E+000	8.9730591E+001	0.0000000E+000	0.0000000E+000	0.0000000E+000	-8.9730591E+001	0.0000000E+000	0.0000000E+000	0.0000000E+000	-2.6940772E-001	0.0000000E+000	0.0000000E+000	0.0000000E+000	2.6940772E-001	2.1267157E+002	8.9730591E+001	2.774421099242235E-004
7.2017908E-001	5.4338611E+002	5.4181963E-001	5.4338635E+002	-5.7130590E-002	02/16/2024 15:25:58.9206	7.7108884E-001	3.1541193E-001	4.0787294E+005	4.0552431E-001	1.000000000000000E+000	12	1.0307592E-002	1.8969178E-005	0	3.507116919723446E-003	1.8403103E-003	1.8350052E-006	1.8403112E-003	5.7130590E-002	4.0551239E+002	4.0669678E+005	4.0669697E+005	-8.9942871E+001	0.0000000E+000	0.0000000E+000	0.0000000E+000	8.9942871E+001	0.0000000E+000	0.0000000E+000	0.0000000E+000	-8.9942871E+001	0.0000000E+000	0.0000000E+000	0.0000000E+000	-5.7130590E-002	0.0000000E+000	0.0000000E+000	0.0000000E+000	5.7130590E-002	1.0028911E+003	8.9942871E+001	3.835608051204181E-004
5.1752120E-001	5.4433905E+002	-3.6062774E-001	5.4433917E+002	3.7958775E-002	02/16/2024 15:26:04.9858	7.7108455E-001	3.1490892E-001	-8.5277188E+005	-3.7429321E-001	1.000000000000000E+000	12	1.0306032E-002	1.8933108E-005	0	4.038023329260215E-003	1.8370895E-003	-1.2170823E-006	1.8370899E-003	-3.7958775E-002	-3.7426819E+002	5.6496600E+005	5.6496613E+005	-9.0037956E+001	0.0000000E+000	0.0000000E+000	0.0000000E+000	9.0037956E+001	0.0000000E+000	0.0000000E+000	0.0000000E+000	-9.0037956E+001	0.0000000E+000	0.0000000E+000	0.0000000E+000	3.7958775E-002	0.0000000E+000	0.0000000E+000	0.0000000E+000	-3.7958775E-002	1.5094209E+003	8.9962044E+001	5.309064095367693E-004
3.7244946E-001	5.4512225E+002	7.2246695E-001	5.4512274E+002	-7.5935774E-002	02/16/2024 15:26:13.3866	7.7109563E-001	3.1419668E-001	5.9147281E+005	1.0389202E+000	1.000000000000000E+000	12	1.0306163E-002	1.8906132E-005	0	4.771059685370212E-003	1.8344476E-003	2.4312485E-006	1.8344492E-003	7.5935774E-002	1.0389144E+003	7.8389538E+005	7.8389606E+005	-8.9924065E+001	0.0000000E+000	0.0000000E+000	0.0000000E+000	8.9924065E+001	0.0000000E+000	0.0000000E+000	0.0000000E+000	-8.9924065E+001	0.0000000E+000	0.0000000E+000	0.0000000E+000	-7.5935774E-002	0.0000000E+000	0.0000000E+000	0.0000000E+000	7.5935774E-002	7.5452899E+002	8.9924065E+001	7.330363561099968E-004
2.6843393E-001	5.4521521E+002	1.8103046E+000	5.4521820E+002	-1.9024128E-001	02/16/2024 15:26:25.0191	7.7109349E-001	3.1326175E-001	3.2751491E+005	3.6107190E+000	1.000000000000000E+000	12	1.0304189E-002	1.8899202E-005	0	5.781620265053715E-003	1.8341179E-003	6.0899115E-006	1.8341281E-003	1.9024128E-001	3.6106750E+003	1.0874518E+006	1.0874578E+006	-8.9809761E+001	0.0000000E+000	0.0000000E+000	0.0000000E+000	8.9809761E+001	0.0000000E+000	0.0000000E+000	0.0000000E+000	-8.9809761E+001	0.0000000E+000	0.0000000E+000	0.0000000E+000	-1.9024128E-001	0.0000000E+000	0.0000000E+000	0.0000000E+000	1.9024128E-001	3.0117319E+002	8.9809761E+001	1.010560579683502E-003
1.9284412E-001	5.4330865E+002	3.2679346E+000	5.4331848E+002	-3.4462291E-001	02/16/2024 15:26:41.1884	7.7109271E-001	3.1198087E-001	2.5254594E+005	9.1364632E+000	1.000000000000000E+000	12	1.0307175E-002	1.8970779E-005	0	7.180402827594216E-003	1.8405078E-003	1.1070429E-005	1.8405411E-003	3.4462291E-001	9.1363799E+003	1.5189776E+006	1.5190051E+006	-8.9655380E+001	0.0000000E+000	0.0000000E+000	0.0000000E+000	8.9655380E+001	0.0000000E+000	0.0000000E+000	0.0000000E+000	-8.9655380E+001	0.0000000E+000	0.0000000E+000	0.0000000E+000	-3.4462291E-001	0.0000000E+000	0.0000000E+000	0.0000000E+000	3.4462291E-001	1.6625444E+002	8.9655380E+001	1.398782562540501E-003
1.3893336E-001	5.4066772E+002	2.4096200E+000	5.4067310E+002	-2.5535119E-001	02/16/2024 15:27:03.6066	7.7109027E-001	3.1028110E-001	4.7540641E+005	9.4426231E+000	1.000000000000000E+000	12	1.0304222E-002	1.9058138E-005	0	9.111128712634763E-003	1.8495281E-003	8.2428814E-006	1.8495464E-003	2.5535119E-001	9.4425127E+003	2.1187248E+006	2.1187458E+006	-8.9744652E+001	0.0000000E+000	0.0000000E+000	0.0000000E+000	8.9744652E+001	0.0000000E+000	0.0000000E+000	0.0000000E+000	-8.9744652E+001	0.0000000E+000	0.0000000E+000	0.0000000E+000	-2.5535119E-001	0.0000000E+000	0.0000000E+000	0.0000000E+000	2.5535119E-001	2.2437883E+002	8.9744652E+001	1.930725885040547E-003
9.9904090E-002	5.3940515E+002	-1.2408612E+000	5.3940656E+002	1.3180442E-001	02/16/2024 15:27:34.7605	7.7109349E-001	3.0808276E-001	-1.2838483E+006	-6.7940326E+000	1.000000000000000E+000	12	1.0304812E-002	1.9103980E-005	0	1.177998339946074E-002	1.8538843E-003	-4.2647221E-006	1.8538892E-003	-1.3180442E-001	-6.7940840E+003	2.9533813E+006	2.9533890E+006	-9.0131805E+001	0.0000000E+000	0.0000000E+000	0.0000000E+000	9.0131805E+001	0.0000000E+000	0.0000000E+000	0.0000000E+000	-9.0131805E+001	0.0000000E+000	0.0000000E+000	0.0000000E+000	1.3180442E-001	0.0000000E+000	0.0000000E+000	0.0000000E+000	-1.3180442E-001	4.3470224E+002	8.9868195E+001	2.668854686825976E-003