EC-Lab ASCII FILE
Nb header lines : 65                          

Potentio Electrochemical Impedance Spectroscopy

Run on channel : 1 (SN 6813)
User : 
CE vs. WE compliance from -10 V to 10 V
Electrode connection : standard
Potential control : Ewe
Ewe ctrl range : min = -1.00 V, max = 1.00 V
Safety Limits :
	Do not start on E overload
Acquisition started on : 02/16/2024 15:35:02.540
Technique started on : 02/16/2024 15:35:03.711
Loaded Setting File :  NONE
Saved on :
	File : 14 2EL413 RVC EtOH TBA-BF4_(under Ar) solidstateref+faradaiccage EIS 0-8.mpr
	Directory : C:\Users\VSP\Documents\EC-Lab\Data\Louis\2024 02 16\
	Host : 10.10.11.222
Device : VSP (SN 0301)
Address : USB
EC-Lab for windows v11.50 (software)
Internet server v11.50 (firmware)
Command interpretor v11.50 (firmware)
Electrode material : 
Initial state : 
Electrolyte : 
Comments : 
Current amplifier : Low Current
Electrode surface area : 0.001 cm²
Characteristic mass : 0.001 g
Equivalent Weight : 0.000 g/eq.
Density : 0.000 g/cm3
Volume (V) : 0.001 cm³
Cycle Definition : Charge/Discharge alternance
Mode                Single sine         
E (V)               0.8000              
vs.                 Eoc                 
tE (h:m:s)          0:00:0.0000         
record              0                   
dI                  0.000               
unit dI             mA                  
dt (s)              0.000               
fi                  1.000               
unit fi             MHz                 
ff                  0.100               
unit ff             Hz                  
Nd                  50                  
Points              from fi to ff       
spacing             Logarithmic         
Va (mV)             10.0                
pw                  0.10                
Na                  3                   
corr                0                   
E range min (V)     -1.000              
E range max (V)     1.000               
I Range             Auto                
Bandwidth           4                   
nc cycles           0                   
goto Ns'            0                   
nr cycles           0                   
inc. cycle          0                   

freq/Hz	Re(Z)/Ohm	-Im(Z)/Ohm	|Z|/Ohm	Phase(Z)/deg	time/s	<Ewe>/V	<I>/mA	Cs/µF	Cp/µF	cycle number	I Range	|Ewe|/V	|I|/A	Ns	(Q-Qo)/mA.h	Re(Y)/Ohm-1	Im(Y)/Ohm-1	|Y|/Ohm-1	Phase(Y)/deg	Re(C)/nF	Im(C)/nF	|C|/nF	Phase(C)/deg	Re(M)	Im(M)	|M|	Phase(M)/deg	Re(Permittivity)	Im(Permittivity)	|Permittivity|	Phase(Permittivity)/deg	Re(Resistivity)/Ohm.cm	Im(Resistivity)/Ohm.cm	|Resistivity|/Ohm.cm	Phase(Resistivity)/deg	Re(Conductivity)/mS/cm	Im(Conductivity)/mS/cm	|Conductivity|/mS/cm	Phase(Conductivity)/deg	Tan(Delta)	Loss Angle(Delta)/deg	dq/mA.h	
1.0000186E+006	-3.1326526E+002	-1.1385765E+002	3.3331470E+002	1.6002611E+002	02/16/2024 15:35:03.7107	8.9329970E-001	5.4314202E-001	-1.3978155E-003	-1.6310428E-004	1.000000000000000E+000	12	1.1515638E-003	3.4548848E-006	0	1.245945644811727E-004	-2.8197027E-003	-1.0248331E-003	3.0001677E-003	-1.6002611E+002	-1.6310422E-001	-4.4876131E-001	4.7748268E-001	1.0997389E+002	0.0000000E+000	0.0000000E+000	0.0000000E+000	-1.0997389E+002	0.0000000E+000	0.0000000E+000	0.0000000E+000	1.0997389E+002	0.0000000E+000	0.0000000E+000	0.0000000E+000	1.6002611E+002	0.0000000E+000	0.0000000E+000	0.0000000E+000	-1.6002611E+002	2.7513764E+000	7.0026108E+001	1.245945644811727E-004
7.1968713E+005	-2.2549420E+002	3.7715112E+002	4.3942075E+002	-1.2087470E+002	02/16/2024 15:35:04.2897	8.9373791E-001	5.4331058E-001	5.8635545E-004	4.3194724E-004	1.000000000000000E+000	12	1.2796493E-003	2.9121277E-006	0	2.104587195538204E-004	-1.1678155E-003	1.9532340E-003	2.2757233E-003	1.2087470E+002	4.3194726E-001	-2.5825614E-001	5.0326401E-001	3.0874702E+001	0.0000000E+000	0.0000000E+000	0.0000000E+000	-3.0874702E+001	0.0000000E+000	0.0000000E+000	0.0000000E+000	3.0874702E+001	0.0000000E+000	0.0000000E+000	0.0000000E+000	-1.2087470E+002	0.0000000E+000	0.0000000E+000	0.0000000E+000	1.2087470E+002	5.9788817E-001	3.0874695E+001	8.586415507264771E-005
5.1794463E+005	4.5309025E+001	1.5345998E+002	1.6000897E+002	-7.3550774E+001	02/16/2024 15:35:05.8527	8.9396888E-001	5.4339588E-001	2.0023577E-003	1.8418034E-003	1.000000000000000E+000	11	2.4579386E-003	1.5361255E-005	0	4.306257046798289E-004	1.7696855E-003	5.9938580E-003	6.2496495E-003	7.3550774E+001	1.8418033E+000	5.4379207E-001	1.9204034E+000	-1.6449226E+001	0.0000000E+000	0.0000000E+000	0.0000000E+000	1.6449226E+001	0.0000000E+000	0.0000000E+000	0.0000000E+000	-1.6449226E+001	0.0000000E+000	0.0000000E+000	0.0000000E+000	-7.3550774E+001	0.0000000E+000	0.0000000E+000	0.0000000E+000	7.3550774E+001	2.9524979E-001	1.6449219E+001	2.201669851260085E-004
3.7276388E+005	8.6075027E+001	1.2049859E+002	1.4808383E+002	-5.4460873E+001	02/16/2024 15:35:06.4317	8.9391220E-001	5.4258579E-001	3.5432710E-003	2.3461350E-003	1.000000000000000E+000	11	3.9067967E-003	2.6382331E-005	0	5.162791827940931E-004	3.9252006E-003	5.4949871E-003	6.7529315E-003	5.4460873E+001	2.3461351E+000	1.6759003E+000	2.8832259E+000	-3.5539127E+001	0.0000000E+000	0.0000000E+000	0.0000000E+000	3.5539127E+001	0.0000000E+000	0.0000000E+000	0.0000000E+000	-3.5539127E+001	0.0000000E+000	0.0000000E+000	0.0000000E+000	-5.4460873E+001	0.0000000E+000	0.0000000E+000	0.0000000E+000	5.4460873E+001	7.1432394E-001	3.5539124E+001	8.565347811426420E-005
2.6826938E+005	9.6516502E+001	1.0185157E+002	1.4031813E+002	-4.6540588E+001	02/16/2024 15:35:07.0107	8.9378762E-001	5.4170334E-001	5.8248034E-003	3.0689454E-003	1.000000000000000E+000	11	5.7648276E-003	4.1083982E-005	0	6.019784591000417E-004	4.9020075E-003	5.1729726E-003	7.1266629E-003	4.6540588E+001	3.0689456E+000	2.9081917E+000	4.2280025E+000	-4.3459412E+001	0.0000000E+000	0.0000000E+000	0.0000000E+000	4.3459412E+001	0.0000000E+000	0.0000000E+000	0.0000000E+000	-4.3459412E+001	0.0000000E+000	0.0000000E+000	0.0000000E+000	-4.6540588E+001	0.0000000E+000	0.0000000E+000	0.0000000E+000	4.6540588E+001	9.4761920E-001	4.3459412E+001	8.569927630594856E-005
1.9306711E+005	1.0612093E+002	9.5613121E+001	1.4284090E+002	-4.2018303E+001	02/16/2024 15:35:07.5897	8.9374799E-001	5.4162139E-001	8.6217290E-003	3.8629957E-003	1.000000000000000E+000	11	8.7227514E-003	6.1066203E-005	0	6.877864556232687E-004	5.2011088E-003	4.6861088E-003	7.0007960E-003	4.2018303E+001	3.8629956E+000	4.2875361E+000	5.7711091E+000	-4.7981697E+001	0.0000000E+000	0.0000000E+000	0.0000000E+000	4.7981697E+001	0.0000000E+000	0.0000000E+000	0.0000000E+000	-4.7981697E+001	0.0000000E+000	0.0000000E+000	0.0000000E+000	-4.2018303E+001	0.0000000E+000	0.0000000E+000	0.0000000E+000	4.2018303E+001	1.1098993E+000	4.7981689E+001	8.580799652322703E-005
1.3894559E+005	1.1819144E+002	9.4846291E+001	1.5154219E+002	-3.8746353E+001	02/16/2024 15:35:08.1687	8.9376479E-001	5.4189509E-001	1.2076887E-002	4.7307345E-003	1.000000000000000E+000	11	1.0258766E-002	6.7695772E-005	0	7.731175776647773E-004	5.1465821E-003	4.1300301E-003	6.5988223E-003	3.8746353E+001	4.7307343E+000	5.8951416E+000	7.5586071E+000	-5.1253647E+001	0.0000000E+000	0.0000000E+000	0.0000000E+000	5.1253647E+001	0.0000000E+000	0.0000000E+000	0.0000000E+000	-5.1253647E+001	0.0000000E+000	0.0000000E+000	0.0000000E+000	-3.8746353E+001	0.0000000E+000	0.0000000E+000	0.0000000E+000	3.8746353E+001	1.2461367E+000	5.1253647E+001	8.533112204150853E-005
1.0000371E+005	1.3234137E+002	9.9493698E+001	1.6556943E+002	-3.6935692E+001	02/16/2024 15:35:08.7477	8.9377779E-001	5.4205674E-001	1.5995890E-002	5.7761609E-003	1.000000000000000E+000	11	1.0606295E-002	6.4059503E-005	0	8.583079445870599E-004	4.8276451E-003	3.6294037E-003	6.0397624E-003	3.6935692E+001	5.7761607E+000	7.6831512E+000	9.6122236E+000	-5.3064308E+001	0.0000000E+000	0.0000000E+000	0.0000000E+000	5.3064308E+001	0.0000000E+000	0.0000000E+000	0.0000000E+000	-5.3064308E+001	0.0000000E+000	0.0000000E+000	0.0000000E+000	-3.6935692E+001	0.0000000E+000	0.0000000E+000	0.0000000E+000	3.6935692E+001	1.3301482E+000	5.3064308E+001	8.519036692228267E-005
7.1964070E+004	1.5051189E+002	1.0674450E+002	1.8452159E+002	-3.5344639E+001	02/16/2024 15:35:09.3257	8.9381868E-001	5.4151344E-001	2.0718528E-002	6.9335480E-003	1.000000000000000E+000	11	1.0673736E-002	5.7845460E-005	0	9.435132499241865E-004	4.4205515E-003	3.1350981E-003	5.4194201E-003	3.5344639E+001	6.9335489E+000	9.7764425E+000	1.1985530E+001	-5.4655361E+001	0.0000000E+000	0.0000000E+000	0.0000000E+000	5.4655361E+001	0.0000000E+000	0.0000000E+000	0.0000000E+000	-5.4655361E+001	0.0000000E+000	0.0000000E+000	0.0000000E+000	-3.5344639E+001	0.0000000E+000	0.0000000E+000	0.0000000E+000	3.5344639E+001	1.4100201E+000	5.4655365E+001	8.520530533712655E-005
5.1792605E+004	1.7186908E+002	1.1825971E+002	2.0862488E+002	-3.4531090E+001	02/16/2024 15:35:09.9047	8.9380783E-001	5.4094899E-001	2.5984572E-002	8.3494335E-003	1.000000000000000E+000	11	1.0622744E-002	5.0917919E-005	0	1.028851482281924E-003	3.9488040E-003	2.7170938E-003	4.7932924E-003	3.4531090E+001	8.3494329E+000	1.2134389E+001	1.4729441E+001	-5.5468910E+001	0.0000000E+000	0.0000000E+000	0.0000000E+000	5.5468910E+001	0.0000000E+000	0.0000000E+000	0.0000000E+000	-5.5468910E+001	0.0000000E+000	0.0000000E+000	0.0000000E+000	-3.4531090E+001	0.0000000E+000	0.0000000E+000	0.0000000E+000	3.4531090E+001	1.4533190E+000	5.5468910E+001	8.533823235773723E-005
3.7271750E+004	2.0540923E+002	1.2765742E+002	2.4184575E+002	-3.1860064E+001	02/16/2024 15:35:10.4827	8.9382839E-001	5.4088420E-001	3.3449858E-002	9.3198624E-003	1.000000000000000E+000	11	1.0766261E-002	4.4517059E-005	0	1.114542345016968E-003	3.5119071E-003	2.1825747E-003	4.1348669E-003	3.1860064E+001	9.3198624E+000	1.4996275E+001	1.7656389E+001	-5.8139938E+001	0.0000000E+000	0.0000000E+000	0.0000000E+000	5.8139938E+001	0.0000000E+000	0.0000000E+000	0.0000000E+000	-5.8139938E+001	0.0000000E+000	0.0000000E+000	0.0000000E+000	-3.1860064E+001	0.0000000E+000	0.0000000E+000	0.0000000E+000	3.1860064E+001	1.6090661E+000	5.8139938E+001	8.569086273504467E-005
2.6824154E+004	2.4176791E+002	1.2885349E+002	2.7396158E+002	-2.8055988E+001	02/16/2024 15:35:11.0617	8.9384079E-001	5.4134673E-001	4.6046641E-002	1.0186171E-002	1.000000000000000E+000	11	1.0702965E-002	3.9067396E-005	0	1.200221899625920E-003	3.2212122E-003	1.7167886E-003	3.6501468E-003	2.8055988E+001	1.0186170E+001	1.9112320E+001	2.1657305E+001	-6.1944012E+001	0.0000000E+000	0.0000000E+000	0.0000000E+000	6.1944012E+001	0.0000000E+000	0.0000000E+000	0.0000000E+000	-6.1944012E+001	0.0000000E+000	0.0000000E+000	0.0000000E+000	-2.8055988E+001	0.0000000E+000	0.0000000E+000	0.0000000E+000	2.8055988E+001	1.8763009E+000	6.1944016E+001	8.567955460895118E-005
1.9308566E+004	2.7787875E+002	1.2022294E+002	3.0277081E+002	-2.3395494E+001	02/16/2024 15:35:11.6407	8.9383191E-001	5.4154468E-001	6.8561889E-002	1.0810093E-002	1.000000000000000E+000	11	1.0597636E-002	3.5002173E-005	0	1.285676340292832E-003	3.0312890E-003	1.3114728E-003	3.3028282E-003	2.3395494E+001	1.0810092E+001	2.4986042E+001	2.7224260E+001	-6.6604507E+001	0.0000000E+000	0.0000000E+000	0.0000000E+000	6.6604507E+001	0.0000000E+000	0.0000000E+000	0.0000000E+000	-6.6604507E+001	0.0000000E+000	0.0000000E+000	0.0000000E+000	-2.3395494E+001	0.0000000E+000	0.0000000E+000	0.0000000E+000	2.3395494E+001	2.3113623E+000	6.6604507E+001	8.545444066691246E-005
1.3899199E+004	3.0966602E+002	1.0436126E+002	3.2677869E+002	-1.8624451E+001	02/16/2024 15:35:12.2197	8.9381325E-001	5.4117072E-001	1.0972133E-001	1.1190828E-002	1.000000000000000E+000	11	1.0497042E-002	3.2122785E-005	0	1.370980753865704E-003	2.8999206E-003	9.7730896E-004	3.0601751E-003	1.8624451E+001	1.1190828E+001	3.3205990E+001	3.5041012E+001	-7.1375549E+001	0.0000000E+000	0.0000000E+000	0.0000000E+000	7.1375549E+001	0.0000000E+000	0.0000000E+000	0.0000000E+000	-7.1375549E+001	0.0000000E+000	0.0000000E+000	0.0000000E+000	-1.8624451E+001	0.0000000E+000	0.0000000E+000	0.0000000E+000	1.8624451E+001	2.9672506E+000	7.1375549E+001	8.530441357287215E-005
1.0002226E+004	3.3203058E+002	8.7361061E+001	3.4333112E+002	-1.4741076E+001	02/16/2024 15:35:12.7987	8.9385086E-001	5.4069453E-001	1.8214011E-001	1.1792749E-002	1.000000000000000E+000	11	1.0341860E-002	3.0122117E-005	0	1.456635312772767E-003	2.8167723E-003	7.4112514E-004	2.9126401E-003	1.4741076E+001	1.1792747E+001	4.4820351E+001	4.6345795E+001	-7.5258926E+001	0.0000000E+000	0.0000000E+000	0.0000000E+000	7.5258926E+001	0.0000000E+000	0.0000000E+000	0.0000000E+000	-7.5258926E+001	0.0000000E+000	0.0000000E+000	0.0000000E+000	-1.4741076E+001	0.0000000E+000	0.0000000E+000	0.0000000E+000	1.4741076E+001	3.8006701E+000	7.5258926E+001	8.565455890706245E-005
7.1953535E+003	3.4543500E+002	7.0688110E+001	3.5259344E+002	-1.1565059E+001	02/16/2024 15:35:13.5086	8.9383352E-001	5.4104102E-001	3.1291157E-001	1.2576677E-002	1.000000000000000E+000	11	1.0203436E-002	2.8938246E-005	0	1.560983740214702E-003	2.7785476E-003	5.6858826E-004	2.8361275E-003	1.1565059E+001	1.2576674E+001	6.1459049E+001	6.2732666E+001	-7.8434944E+001	0.0000000E+000	0.0000000E+000	0.0000000E+000	7.8434944E+001	0.0000000E+000	0.0000000E+000	0.0000000E+000	-7.8434944E+001	0.0000000E+000	0.0000000E+000	0.0000000E+000	-1.1565059E+001	0.0000000E+000	0.0000000E+000	0.0000000E+000	1.1565059E+001	4.8867483E+000	7.8434944E+001	1.043484274419349E-004
5.1814517E+003	3.5392618E+002	5.5264515E+001	3.5821487E+002	-8.8748989E+000	02/16/2024 15:35:14.4356	8.9386004E-001	5.4081607E-001	5.5580479E-001	1.3229024E-002	1.000000000000000E+000	11	1.0088103E-002	2.8162156E-005	0	1.698279260882826E-003	2.7581980E-003	4.3068439E-004	2.7916206E-003	8.8748989E+000	1.3229027E+001	8.4721596E+001	8.5748215E+001	-8.1125099E+001	0.0000000E+000	0.0000000E+000	0.0000000E+000	8.1125099E+001	0.0000000E+000	0.0000000E+000	0.0000000E+000	-8.1125099E+001	0.0000000E+000	0.0000000E+000	0.0000000E+000	-8.8748989E+000	0.0000000E+000	0.0000000E+000	0.0000000E+000	8.8748989E+000	6.4042211E+000	8.1125099E+001	1.372955206681249E-004
3.7264229E+003	3.6134634E+002	4.5987541E+001	3.6426096E+002	-7.2528830E+000	02/16/2024 15:35:15.1333	8.9382255E-001	5.4083252E-001	9.2872643E-001	1.4802769E-002	1.000000000000000E+000	11	1.0622839E-002	2.9162717E-005	0	1.801715714894691E-003	2.7233185E-003	3.4658914E-004	2.7452847E-003	7.2528830E+000	1.4802771E+001	1.1631252E+002	1.1725069E+002	-8.2747116E+001	0.0000000E+000	0.0000000E+000	0.0000000E+000	8.2747116E+001	0.0000000E+000	0.0000000E+000	0.0000000E+000	-8.2747116E+001	0.0000000E+000	0.0000000E+000	0.0000000E+000	-7.2528830E+000	0.0000000E+000	0.0000000E+000	0.0000000E+000	7.2528830E+000	7.8574834E+000	8.2747116E+001	1.034364540118647E-004
2.6824250E+003	3.6492627E+002	3.6435795E+001	3.6674072E+002	-5.7017584E+000	02/16/2024 15:35:15.8313	8.9385343E-001	5.4081756E-001	1.6284120E+000	1.6073206E-002	1.000000000000000E+000	11	1.0854742E-002	2.9597866E-005	0	1.905117399717820E-003	2.7132316E-003	2.7090061E-004	2.7267220E-003	5.7017584E+000	1.6073210E+001	1.6098277E+002	1.6178319E+002	-8.4298241E+001	0.0000000E+000	0.0000000E+000	0.0000000E+000	8.4298241E+001	0.0000000E+000	0.0000000E+000	0.0000000E+000	-8.4298241E+001	0.0000000E+000	0.0000000E+000	0.0000000E+000	-5.7017584E+000	0.0000000E+000	0.0000000E+000	0.0000000E+000	5.7017584E+000	1.0015598E+001	8.4298241E+001	1.034016848231291E-004
1.9306176E+003	3.6771945E+002	3.1924334E+001	3.6910263E+002	-4.9618120E+000	02/16/2024 15:35:16.5281	8.9385092E-001	5.4067230E-001	2.5822723E+000	1.9317523E-002	1.000000000000000E+000	11	1.0992278E-002	2.9781089E-005	0	2.008279424243516E-003	2.6991207E-003	2.3432981E-004	2.7092735E-003	4.9618120E+000	1.9317533E+001	2.2250829E+002	2.2334526E+002	-8.5038185E+001	0.0000000E+000	0.0000000E+000	0.0000000E+000	8.5038185E+001	0.0000000E+000	0.0000000E+000	0.0000000E+000	-8.5038185E+001	0.0000000E+000	0.0000000E+000	0.0000000E+000	-4.9618120E+000	0.0000000E+000	0.0000000E+000	0.0000000E+000	4.9618120E+000	1.1518469E+001	8.5038185E+001	1.031620245256959E-004
1.3886667E+003	3.7262506E+002	2.9784943E+001	3.7381357E+002	-4.5700917E+000	02/16/2024 15:35:17.4603	8.9384544E-001	5.4069793E-001	3.8479135E+000	2.4429170E-002	1.000000000000000E+000	11	1.0130327E-002	2.7099946E-005	0	2.146770496034671E-003	2.6666250E-003	2.1315062E-004	2.6751303E-003	4.5700917E+000	2.4429167E+001	3.0562158E+002	3.0659637E+002	-8.5429909E+001	0.0000000E+000	0.0000000E+000	0.0000000E+000	8.5429909E+001	0.0000000E+000	0.0000000E+000	0.0000000E+000	-8.5429909E+001	0.0000000E+000	0.0000000E+000	0.0000000E+000	-4.5700917E+000	0.0000000E+000	0.0000000E+000	0.0000000E+000	4.5700917E+000	1.2510518E+001	8.5429909E+001	1.384910717911552E-004
1.0003202E+003	3.7468988E+002	2.8506100E+001	3.7577267E+002	-4.3506351E+000	02/16/2024 15:35:18.1571	8.9383966E-001	5.4062712E-001	5.5814018E+000	3.2119479E-002	1.000000000000000E+000	11	1.0141538E-002	2.6988493E-005	0	2.250142044395997E-003	2.6535152E-003	2.0187726E-004	2.6611835E-003	4.3506351E+000	3.2119457E+001	4.2218488E+002	4.2340494E+002	-8.5649368E+001	0.0000000E+000	0.0000000E+000	0.0000000E+000	8.5649368E+001	0.0000000E+000	0.0000000E+000	0.0000000E+000	-8.5649368E+001	0.0000000E+000	0.0000000E+000	0.0000000E+000	-4.3506351E+000	0.0000000E+000	0.0000000E+000	0.0000000E+000	4.3506351E+000	1.3144200E+001	8.5649368E+001	1.033715483613261E-004
7.1930957E+002	3.7868533E+002	2.9728710E+001	3.7985046E+002	-4.4888015E+000	02/16/2024 15:35:18.8553	8.9382380E-001	5.4057622E-001	7.4426608E+000	4.5588475E-002	1.000000000000000E+000	11	1.0159185E-002	2.6745221E-005	0	2.353589485239237E-003	2.6245397E-003	2.0603962E-004	2.6326149E-003	4.4888015E+000	4.5588459E+001	5.8070752E+002	5.8249426E+002	-8.5511200E+001	0.0000000E+000	0.0000000E+000	0.0000000E+000	8.5511200E+001	0.0000000E+000	0.0000000E+000	0.0000000E+000	-8.5511200E+001	0.0000000E+000	0.0000000E+000	0.0000000E+000	-4.4888015E+000	0.0000000E+000	0.0000000E+000	0.0000000E+000	4.4888015E+000	1.2738034E+001	8.5511200E+001	1.034474408432400E-004
5.1817603E+002	3.8415051E+002	3.0794720E+001	3.8538284E+002	-4.5832100E+000	02/16/2024 15:35:19.5549	8.9386684E-001	5.4048884E-001	9.9739361E+000	6.3684583E-002	1.000000000000000E+000	11	1.0180544E-002	2.6416703E-005	0	2.457149298518107E-003	2.5865249E-003	2.0734401E-004	2.5948223E-003	4.5832100E+000	6.3684528E+001	7.9443707E+002	7.9698553E+002	-8.5416794E+001	0.0000000E+000	0.0000000E+000	0.0000000E+000	8.5416794E+001	0.0000000E+000	0.0000000E+000	0.0000000E+000	-8.5416794E+001	0.0000000E+000	0.0000000E+000	0.0000000E+000	-4.5832100E+000	0.0000000E+000	0.0000000E+000	0.0000000E+000	4.5832100E+000	1.2474558E+001	8.5416794E+001	1.035598132788696E-004
3.7273376E+002	3.9118365E+002	3.5787392E+001	3.9281726E+002	-5.2271471E+000	02/16/2024 15:35:20.2544	8.9383698E-001	5.4051852E-001	1.1931398E+001	9.9030808E-002	1.000000000000000E+000	11	1.0208840E-002	2.5988775E-005	0	2.560933948389267E-003	2.5351262E-003	2.3192572E-004	2.5457130E-003	5.2271471E+000	9.9030853E+001	1.0824827E+003	1.0870032E+003	-8.4772850E+001	0.0000000E+000	0.0000000E+000	0.0000000E+000	8.4772850E+001	0.0000000E+000	0.0000000E+000	0.0000000E+000	-8.4772850E+001	0.0000000E+000	0.0000000E+000	0.0000000E+000	-5.2271471E+000	0.0000000E+000	0.0000000E+000	0.0000000E+000	5.2271471E+000	1.0930767E+001	8.4772850E+001	1.037846498711604E-004
2.6836835E+002	3.9786237E+002	3.8516376E+001	3.9972238E+002	-5.5294757E+000	02/16/2024 15:35:20.9554	8.9385045E-001	5.4048300E-001	1.5397260E+001	1.4296092E-001	1.000000000000000E+000	11	1.0188548E-002	2.5489060E-005	0	2.664840904678787E-003	2.4900953E-003	2.4106186E-004	2.5017364E-003	5.5294757E+000	1.4296083E+002	1.4767424E+003	1.4836462E+003	-8.4470528E+001	0.0000000E+000	0.0000000E+000	0.0000000E+000	8.4470528E+001	0.0000000E+000	0.0000000E+000	0.0000000E+000	-8.4470528E+001	0.0000000E+000	0.0000000E+000	0.0000000E+000	-5.5294757E+000	0.0000000E+000	0.0000000E+000	0.0000000E+000	5.5294757E+000	1.0329694E+001	8.4470528E+001	1.039069562895198E-004
1.9308463E+002	4.0616785E+002	4.3452332E+001	4.0848553E+002	-6.1063471E+000	02/16/2024 15:35:21.6581	8.9382738E-001	5.4045051E-001	1.8969652E+001	2.1465062E-001	1.000000000000000E+000	11	1.0189364E-002	2.4944246E-005	0	2.769106123737768E-003	2.4341771E-003	2.6041124E-004	2.4480671E-003	6.1063471E+000	2.1465060E+002	2.0064330E+003	2.0178821E+003	-8.3893654E+001	0.0000000E+000	0.0000000E+000	0.0000000E+000	8.3893654E+001	0.0000000E+000	0.0000000E+000	0.0000000E+000	-8.3893654E+001	0.0000000E+000	0.0000000E+000	0.0000000E+000	-6.1063471E+000	0.0000000E+000	0.0000000E+000	0.0000000E+000	6.1063471E+000	9.3474350E+000	8.3893654E+001	1.042652190589807E-004
1.3897710E+002	4.1877289E+002	4.4227940E+001	4.2110193E+002	-6.0288410E+000	02/16/2024 15:35:22.3596	8.9385849E-001	5.4032308E-001	2.5892868E+001	2.8562692E-001	1.000000000000000E+000	11	1.0191532E-002	2.4202054E-005	0	2.872954301694402E-003	2.3615877E-003	2.4941482E-004	2.3747219E-003	6.0288410E+000	2.8562683E+002	2.7044624E+003	2.7195037E+003	-8.3971161E+001	0.0000000E+000	0.0000000E+000	0.0000000E+000	8.3971161E+001	0.0000000E+000	0.0000000E+000	0.0000000E+000	-8.3971161E+001	0.0000000E+000	0.0000000E+000	0.0000000E+000	-6.0288410E+000	0.0000000E+000	0.0000000E+000	0.0000000E+000	6.0288410E+000	9.4685144E+000	8.3971161E+001	1.038481779566339E-004
1.0003201E+002	4.3075363E+002	4.3937096E+001	4.3298865E+002	-5.8240571E+000	02/16/2024 15:35:23.0561	8.9387542E-001	5.4032135E-001	3.6211773E+001	3.7287173E-001	1.000000000000000E+000	11	1.0181265E-002	2.3513931E-005	0	2.976006979687715E-003	2.2976079E-003	2.3435721E-004	2.3095293E-003	5.8240571E+000	3.7287183E+002	3.6555867E+003	3.6745540E+003	-8.4175941E+001	0.0000000E+000	0.0000000E+000	0.0000000E+000	8.4175941E+001	0.0000000E+000	0.0000000E+000	0.0000000E+000	-8.4175941E+001	0.0000000E+000	0.0000000E+000	0.0000000E+000	-5.8240571E+000	0.0000000E+000	0.0000000E+000	0.0000000E+000	5.8240571E+000	9.8038712E+000	8.4175941E+001	1.030526779933131E-004
7.1957260E+001	4.4944815E+002	4.3552437E+001	4.5155338E+002	-5.5347962E+000	02/16/2024 15:35:23.7377	8.9384270E-001	5.4044986E-001	5.0784718E+001	4.7243252E-001	1.000000000000000E+000	11	1.0176489E-002	2.2536626E-005	0	3.076984531125176E-003	2.2042526E-003	2.1359655E-004	2.2145775E-003	5.5347962E+000	4.7243262E+002	4.8753623E+003	4.8981987E+003	-8.4465202E+001	0.0000000E+000	0.0000000E+000	0.0000000E+000	8.4465202E+001	0.0000000E+000	0.0000000E+000	0.0000000E+000	-8.4465202E+001	0.0000000E+000	0.0000000E+000	0.0000000E+000	-5.5347962E+000	0.0000000E+000	0.0000000E+000	0.0000000E+000	5.5347962E+000	1.0319701E+001	8.4465202E+001	1.009775514374616E-004
5.1807030E+001	4.5882236E+002	4.4698547E+001	4.6099448E+002	-5.5642061E+000	02/16/2024 15:35:24.4121	8.9384788E-001	5.4010892E-001	6.8728691E+001	6.4615011E-001	1.000000000000000E+000	11	1.0211719E-002	2.2151500E-005	0	3.177122268528406E-003	2.1590025E-003	2.1033039E-004	2.1692235E-003	5.5642061E+000	6.4615045E+002	6.6326113E+003	6.6640112E+003	-8.4435791E+001	0.0000000E+000	0.0000000E+000	0.0000000E+000	8.4435791E+001	0.0000000E+000	0.0000000E+000	0.0000000E+000	-8.4435791E+001	0.0000000E+000	0.0000000E+000	0.0000000E+000	-5.5642061E+000	0.0000000E+000	0.0000000E+000	0.0000000E+000	5.5642061E+000	1.0264816E+001	8.4435791E+001	1.001377374032293E-004
3.7253067E+001	4.6375650E+002	3.6137917E+001	4.6516238E+002	-4.4557314E+000	02/16/2024 15:35:25.0720	8.9388746E-001	5.4004902E-001	1.1822110E+002	7.1352971E-001	1.000000000000000E+000	11	1.0189810E-002	2.1905920E-005	0	3.274749851436483E-003	2.1432894E-003	1.6701440E-004	2.1497868E-003	4.4557314E+000	7.1353015E+002	9.1566992E+003	9.1844580E+003	-8.5544266E+001	0.0000000E+000	0.0000000E+000	0.0000000E+000	8.5544266E+001	0.0000000E+000	0.0000000E+000	0.0000000E+000	-8.5544266E+001	0.0000000E+000	0.0000000E+000	0.0000000E+000	-4.4557314E+000	0.0000000E+000	0.0000000E+000	0.0000000E+000	4.4557314E+000	1.2832962E+001	8.5544266E+001	9.762758290807758E-005
2.6828640E+001	4.7168875E+002	2.2714233E+001	4.7223535E+002	-2.7569559E+000	02/16/2024 15:35:25.7285	8.9386630E-001	5.4025364E-001	2.6117004E+002	6.0423040E-001	1.000000000000000E+000	11	1.0191882E-002	2.1582209E-005	0	3.371950769110055E-003	2.1151372E-003	1.0185470E-004	2.1175882E-003	2.7569559E+000	6.0423083E+002	1.2547581E+004	1.2562121E+004	-8.7243042E+001	0.0000000E+000	0.0000000E+000	0.0000000E+000	8.7243042E+001	0.0000000E+000	0.0000000E+000	0.0000000E+000	-8.7243042E+001	0.0000000E+000	0.0000000E+000	0.0000000E+000	-2.7569559E+000	0.0000000E+000	0.0000000E+000	0.0000000E+000	2.7569559E+000	2.0766220E+001	8.7243042E+001	9.720091767357209E-005
1.9313969E+001	4.7859360E+002	2.4117659E+001	4.7920090E+002	-2.8848529E+000	02/16/2024 15:35:26.4463	8.9380723E-001	5.4032433E-001	3.4167523E+002	8.6546302E-001	1.000000000000000E+000	11	1.0200062E-002	2.1285565E-005	0	3.478291646906640E-003	2.0841628E-003	1.0502675E-004	2.0868075E-003	2.8848529E+000	8.6546204E+002	1.7174348E+004	1.7196141E+004	-8.7115150E+001	0.0000000E+000	0.0000000E+000	0.0000000E+000	8.7115150E+001	0.0000000E+000	0.0000000E+000	0.0000000E+000	-8.7115150E+001	0.0000000E+000	0.0000000E+000	0.0000000E+000	-2.8848529E+000	0.0000000E+000	0.0000000E+000	0.0000000E+000	2.8848529E+000	1.9844116E+001	8.7115150E+001	1.063408777965849E-004
1.3884775E+001	4.7667609E+002	1.4930160E+001	4.7690985E+002	-1.7939972E+000	02/16/2024 15:35:27.1932	8.9384520E-001	5.4004669E-001	7.6774469E+002	7.5244218E-001	1.000000000000000E+000	11	1.0193416E-002	2.1373884E-005	0	3.588985111845864E-003	2.0958045E-003	6.5643515E-005	2.0968323E-003	1.7939972E+000	7.5244281E+002	2.4023266E+004	2.4035047E+004	-8.8206001E+001	0.0000000E+000	0.0000000E+000	0.0000000E+000	8.8206001E+001	0.0000000E+000	0.0000000E+000	0.0000000E+000	-8.8206001E+001	0.0000000E+000	0.0000000E+000	0.0000000E+000	-1.7939972E+000	0.0000000E+000	0.0000000E+000	0.0000000E+000	1.7939972E+000	3.1927059E+001	8.8206001E+001	1.106934649392237E-004
1.0003201E+001	4.7762756E+002	1.0710998E+001	4.7774765E+002	-1.2846665E+000	02/16/2024 15:35:27.8901	8.9383864E-001	5.4004997E-001	1.4854266E+003	7.4664462E-001	1.000000000000000E+000	11	1.0173528E-002	2.1294773E-005	0	3.692177826174677E-003	2.0926290E-003	4.6928082E-005	2.0931552E-003	1.2846665E+000	7.4664545E+002	3.3294566E+004	3.3302938E+004	-8.8715332E+001	0.0000000E+000	0.0000000E+000	0.0000000E+000	8.8715332E+001	0.0000000E+000	0.0000000E+000	0.0000000E+000	-8.8715332E+001	0.0000000E+000	0.0000000E+000	0.0000000E+000	-1.2846665E+000	0.0000000E+000	0.0000000E+000	0.0000000E+000	1.2846665E+000	4.4592258E+001	8.8715332E+001	1.031927143288133E-004
7.1938338E+000	4.8114996E+002	6.2324853E+000	4.8119034E+002	-7.4212855E-001	02/16/2024 15:35:28.4040	8.9381820E-001	5.3967959E-001	3.5497556E+003	5.9550744E-001	1.000000000000000E+000	11	1.0198157E-002	2.1193604E-005	0	3.768204120239062E-003	2.0780053E-003	2.6917050E-005	2.0781797E-003	7.4212855E-001	5.9550580E+002	4.5973379E+004	4.5977234E+004	-8.9257874E+001	0.0000000E+000	0.0000000E+000	0.0000000E+000	8.9257874E+001	0.0000000E+000	0.0000000E+000	0.0000000E+000	-8.9257874E+001	0.0000000E+000	0.0000000E+000	0.0000000E+000	-7.4212855E-001	0.0000000E+000	0.0000000E+000	0.0000000E+000	7.4212855E-001	7.7200340E+001	8.9257874E+001	7.602629406438469E-005
5.1807032E+000	4.8249124E+002	7.4342289E+000	4.8254852E+002	-8.8274395E-001	02/16/2024 15:35:29.0831	8.9379734E-001	5.4013675E-001	4.1323345E+003	9.8081106E-001	1.000000000000000E+000	11	1.0199444E-002	2.1136619E-005	0	3.868320556995252E-003	2.0720847E-003	3.1926695E-005	2.0723306E-003	8.8274395E-001	9.8081097E+002	6.3655934E+004	6.3663488E+004	-8.9117256E+001	0.0000000E+000	0.0000000E+000	0.0000000E+000	8.9117256E+001	0.0000000E+000	0.0000000E+000	0.0000000E+000	-8.9117256E+001	0.0000000E+000	0.0000000E+000	0.0000000E+000	-8.8274395E-001	0.0000000E+000	0.0000000E+000	0.0000000E+000	8.8274395E-001	6.4901314E+001	8.9117256E+001	1.001164367561897E-004
3.7273378E+000	4.7894214E+002	3.4186873E+000	4.7895435E+002	-4.0897012E-001	02/16/2024 15:35:29.9896	8.9384025E-001	5.4005939E-001	1.2489987E+004	6.3634485E-001	1.000000000000000E+000	11	1.0189188E-002	2.1273818E-005	0	4.002332150241102E-003	2.0878285E-003	1.4902911E-005	2.0878816E-003	4.0897012E-001	6.3635034E+002	8.9148938E+004	8.9151211E+004	-8.9591026E+001	0.0000000E+000	0.0000000E+000	0.0000000E+000	8.9591026E+001	0.0000000E+000	0.0000000E+000	0.0000000E+000	-8.9591026E+001	0.0000000E+000	0.0000000E+000	0.0000000E+000	-4.0897012E-001	0.0000000E+000	0.0000000E+000	0.0000000E+000	4.0897012E-001	1.4009534E+002	8.9591026E+001	1.340115932458499E-004
2.6847079E+000	4.8034213E+002	1.9617764E+000	4.8034613E+002	-2.3400173E-001	02/16/2024 15:35:31.2171	8.9385015E-001	5.3983408E-001	3.0218547E+004	5.0403887E-001	1.000000000000000E+000	11	1.0185412E-002	2.1204318E-005	0	4.185338254751108E-003	2.0818147E-003	8.5023885E-006	2.0818321E-003	2.3400173E-001	5.0403763E+002	1.2341421E+005	1.2341524E+005	-8.9765999E+001	0.0000000E+000	0.0000000E+000	0.0000000E+000	8.9765999E+001	0.0000000E+000	0.0000000E+000	0.0000000E+000	-8.9765999E+001	0.0000000E+000	0.0000000E+000	0.0000000E+000	-2.3400173E-001	0.0000000E+000	0.0000000E+000	0.0000000E+000	2.3400173E-001	2.4485060E+002	8.9765999E+001	1.830061045100060E-004
1.9299656E+000	4.7886465E+002	2.0506878E-001	4.7886469E+002	-2.4536317E-002	02/16/2024 15:35:32.8931	8.9383548E-001	5.3988957E-001	4.0213422E+005	7.3747024E-002	1.000000000000000E+000	11	1.0174489E-002	2.1247106E-005	0	4.435402736811730E-003	2.0882725E-003	8.9428090E-007	2.0882727E-003	2.4536317E-002	7.3746468E+001	1.7220973E+005	1.7220975E+005	-8.9975464E+001	0.0000000E+000	0.0000000E+000	0.0000000E+000	8.9975464E+001	0.0000000E+000	0.0000000E+000	0.0000000E+000	-8.9975464E+001	0.0000000E+000	0.0000000E+000	0.0000000E+000	-2.4536317E-002	0.0000000E+000	0.0000000E+000	0.0000000E+000	2.4536317E-002	2.3351416E+003	8.9975464E+001	2.500644820606227E-004
1.3881482E+000	4.7877924E+002	8.2761627E-003	4.7877924E+002	-9.9041313E-004	02/16/2024 15:35:35.1969	8.9385772E-001	5.3971207E-001	1.3853365E+007	4.1394504E-003	1.000000000000000E+000	11	1.0179477E-002	2.1261316E-005	0	4.778648487063681E-003	2.0886452E-003	3.6104257E-008	2.0886452E-003	9.9041313E-004	4.1453366E+000	2.3946883E+005	2.3946883E+005	-8.9999008E+001	0.0000000E+000	0.0000000E+000	0.0000000E+000	8.9999008E+001	0.0000000E+000	0.0000000E+000	0.0000000E+000	-8.9999008E+001	0.0000000E+000	0.0000000E+000	0.0000000E+000	-9.9041313E-004	0.0000000E+000	0.0000000E+000	0.0000000E+000	9.9041313E-004	5.7850391E+004	8.9999008E+001	3.432457502519507E-004
1.0000639E+000	4.7789578E+002	-9.4389278E-001	4.7789673E+002	1.1316484E-001	02/16/2024 15:35:38.3661	8.9386344E-001	5.3956079E-001	-1.6860472E+005	-6.5772891E-001	1.000000000000000E+000	11	1.0183742E-002	2.1309505E-005	0	5.251635639098292E-003	2.0924981E-003	-4.1328967E-006	2.0925023E-003	-1.1316484E-001	-6.5774036E+002	3.3301016E+005	3.3301081E+005	-9.0113167E+001	0.0000000E+000	0.0000000E+000	0.0000000E+000	9.0113167E+001	0.0000000E+000	0.0000000E+000	0.0000000E+000	-9.0113167E+001	0.0000000E+000	0.0000000E+000	0.0000000E+000	1.1316484E-001	0.0000000E+000	0.0000000E+000	0.0000000E+000	-1.1316484E-001	5.0630304E+002	8.9886833E+001	4.729871520346108E-004
7.2017908E-001	4.7764609E+002	-2.0077679E+000	4.7765030E+002	2.4083930E-001	02/16/2024 15:35:42.7427	8.9385998E-001	5.3932363E-001	-1.1006928E+005	-1.9447914E+000	1.000000000000000E+000	11	1.0184433E-002	2.1321945E-005	0	5.906042241210739E-003	2.0935636E-003	-8.8002180E-006	2.0935819E-003	-2.4083930E-001	-1.9447736E+003	4.6266403E+005	4.6266813E+005	-9.0240837E+001	0.0000000E+000	0.0000000E+000	0.0000000E+000	9.0240837E+001	0.0000000E+000	0.0000000E+000	0.0000000E+000	-9.0240837E+001	0.0000000E+000	0.0000000E+000	0.0000000E+000	2.4083930E-001	0.0000000E+000	0.0000000E+000	0.0000000E+000	-2.4083930E-001	2.3789905E+002	8.9759163E+001	6.544066021124473E-004
5.1752120E-001	4.7730948E+002	-2.9943483E+000	4.7731888E+002	3.5943401E-001	02/16/2024 15:35:48.8079	8.9386082E-001	5.3894055E-001	-1.0270455E+005	-4.0418210E+000	1.000000000000000E+000	11	1.0188673E-002	2.1345631E-005	0	6.813782244141200E-003	2.0949943E-003	-1.3142714E-005	2.0950355E-003	-3.5943401E-001	-4.0418440E+003	6.4428031E+005	6.4429300E+005	-9.0359436E+001	0.0000000E+000	0.0000000E+000	0.0000000E+000	9.0359436E+001	0.0000000E+000	0.0000000E+000	0.0000000E+000	-9.0359436E+001	0.0000000E+000	0.0000000E+000	0.0000000E+000	3.5943401E-001	0.0000000E+000	0.0000000E+000	0.0000000E+000	-3.5943401E-001	1.5940346E+002	8.9640564E+001	9.077400029304612E-004
3.7244946E-001	4.7795984E+002	-3.0398345E+000	4.7796951E+002	3.6439744E-001	02/16/2024 15:35:57.2096	8.9386010E-001	5.3840429E-001	-1.4057330E+005	-5.6859407E+000	1.000000000000000E+000	11	1.0185480E-002	2.1309896E-005	0	8.070445716750110E-003	2.0921412E-003	-1.3306062E-005	2.0921836E-003	-3.6439744E-001	-5.6859048E+003	8.9401294E+005	8.9403100E+005	-9.0364395E+001	0.0000000E+000	0.0000000E+000	0.0000000E+000	9.0364395E+001	0.0000000E+000	0.0000000E+000	0.0000000E+000	-9.0364395E+001	0.0000000E+000	0.0000000E+000	0.0000000E+000	3.6439744E-001	0.0000000E+000	0.0000000E+000	0.0000000E+000	-3.6439744E-001	1.5723219E+002	8.9635605E+001	1.256663472608909E-003
2.6843393E-001	4.7828406E+002	-2.5550592E+000	4.7829089E+002	3.0607900E-001	02/16/2024 15:36:08.8411	8.9386064E-001	5.3762388E-001	-2.3205011E+005	-6.6221571E+000	1.000000000000000E+000	11	1.0184625E-002	2.1293788E-005	0	9.806925560449780E-003	2.0907479E-003	-1.1169062E-005	2.0907777E-003	-3.0607900E-001	-6.6220923E+003	1.2396080E+006	1.2396258E+006	-9.0306076E+001	0.0000000E+000	0.0000000E+000	0.0000000E+000	9.0306076E+001	0.0000000E+000	0.0000000E+000	0.0000000E+000	-9.0306076E+001	0.0000000E+000	0.0000000E+000	0.0000000E+000	3.0607900E-001	0.0000000E+000	0.0000000E+000	0.0000000E+000	-3.0607900E-001	1.8719099E+002	8.9693924E+001	1.736479843699670E-003
1.9284412E-001	4.7789944E+002	-7.8447831E-001	4.7790009E+002	9.4051704E-002	02/16/2024 15:36:25.0106	8.9385986E-001	5.3648019E-001	-1.0520413E+006	-2.8347869E+000	1.000000000000000E+000	11	1.0184974E-002	2.1311933E-005	0	1.221404334614981E-002	2.0924849E-003	-3.4348418E-006	2.0924876E-003	-9.4051704E-002	-2.8348918E+003	1.7269351E+006	1.7269375E+006	-9.0094055E+001	0.0000000E+000	0.0000000E+000	0.0000000E+000	9.0094055E+001	0.0000000E+000	0.0000000E+000	0.0000000E+000	-9.0094055E+001	0.0000000E+000	0.0000000E+000	0.0000000E+000	9.4051704E-002	0.0000000E+000	0.0000000E+000	0.0000000E+000	-9.4051704E-002	6.0919397E+002	8.9905945E+001	2.407117785700028E-003
1.3893336E-001	4.7488373E+002	1.2221454E+000	4.7488531E+002	-1.4745425E-001	02/16/2024 15:36:47.4297	8.9386088E-001	5.3495866E-001	9.3732613E+005	6.2081041E+000	1.000000000000000E+000	11	1.0184301E-002	2.1445812E-005	0	1.554102404310252E-002	2.1057646E-003	5.4193279E-006	2.1057716E-003	1.4745425E-001	6.2080649E+003	2.4122560E+006	2.4122640E+006	-8.9852547E+001	0.0000000E+000	0.0000000E+000	0.0000000E+000	8.9852547E+001	0.0000000E+000	0.0000000E+000	0.0000000E+000	-8.9852547E+001	0.0000000E+000	0.0000000E+000	0.0000000E+000	-1.4745425E-001	0.0000000E+000	0.0000000E+000	0.0000000E+000	1.4745425E-001	3.8856564E+002	8.9852547E+001	3.326980696952708E-003
9.9904090E-002	4.7101541E+002	5.5348378E-001	4.7101575E+002	-6.7327455E-002	02/16/2024 15:37:18.5825	8.9386398E-001	5.3314710E-001	2.8782730E+006	3.9743941E+000	1.000000000000000E+000	11	1.0183966E-002	2.1621285E-005	0	2.014957956786257E-002	2.1230699E-003	2.4947904E-006	2.1230713E-003	6.7327455E-002	3.9745090E+003	3.3822145E+006	3.3822168E+006	-8.9932671E+001	0.0000000E+000	0.0000000E+000	0.0000000E+000	8.9932671E+001	0.0000000E+000	0.0000000E+000	0.0000000E+000	-8.9932671E+001	0.0000000E+000	0.0000000E+000	0.0000000E+000	-6.7327455E-002	0.0000000E+000	0.0000000E+000	0.0000000E+000	6.7327455E-002	8.5100128E+002	8.9932671E+001	4.608555524760055E-003