EC-Lab ASCII FILE
Nb header lines : 65                          

Potentio Electrochemical Impedance Spectroscopy

Run on channel : 1 (SN 6813)
User : 
CE vs. WE compliance from -10 V to 10 V
Electrode connection : standard
Potential control : Ewe
Ewe ctrl range : min = -1.00 V, max = 1.00 V
Safety Limits :
	Do not start on E overload
Acquisition started on : 02/16/2024 15:38:55.175
Technique started on : 02/16/2024 15:38:56.181
Loaded Setting File :  NONE
Saved on :
	File : 15 2EL413 RVC EtOH TBA-BF4_(under Ar) solidstateref+faradaiccage EIS 0-9.mpr
	Directory : C:\Users\VSP\Documents\EC-Lab\Data\Louis\2024 02 16\
	Host : 10.10.11.222
Device : VSP (SN 0301)
Address : USB
EC-Lab for windows v11.50 (software)
Internet server v11.50 (firmware)
Command interpretor v11.50 (firmware)
Electrode material : 
Initial state : 
Electrolyte : 
Comments : 
Current amplifier : Low Current
Electrode surface area : 0.001 cm²
Characteristic mass : 0.001 g
Equivalent Weight : 0.000 g/eq.
Density : 0.000 g/cm3
Volume (V) : 0.001 cm³
Cycle Definition : Charge/Discharge alternance
Mode                Single sine         
E (V)               0.9000              
vs.                 Eoc                 
tE (h:m:s)          0:00:0.0000         
record              0                   
dI                  0.000               
unit dI             mA                  
dt (s)              0.000               
fi                  1.000               
unit fi             MHz                 
ff                  0.100               
unit ff             Hz                  
Nd                  50                  
Points              from fi to ff       
spacing             Logarithmic         
Va (mV)             10.0                
pw                  0.10                
Na                  3                   
corr                0                   
E range min (V)     -1.000              
E range max (V)     1.000               
I Range             Auto                
Bandwidth           4                   
nc cycles           0                   
goto Ns'            0                   
nr cycles           0                   
inc. cycle          0                   

freq/Hz	Re(Z)/Ohm	-Im(Z)/Ohm	|Z|/Ohm	Phase(Z)/deg	time/s	<Ewe>/V	<I>/mA	Cs/µF	Cp/µF	cycle number	I Range	|Ewe|/V	|I|/A	Ns	(Q-Qo)/mA.h	Re(Y)/Ohm-1	Im(Y)/Ohm-1	|Y|/Ohm-1	Phase(Y)/deg	Re(C)/nF	Im(C)/nF	|C|/nF	Phase(C)/deg	Re(M)	Im(M)	|M|	Phase(M)/deg	Re(Permittivity)	Im(Permittivity)	|Permittivity|	Phase(Permittivity)/deg	Re(Resistivity)/Ohm.cm	Im(Resistivity)/Ohm.cm	|Resistivity|/Ohm.cm	Phase(Resistivity)/deg	Re(Conductivity)/mS/cm	Im(Conductivity)/mS/cm	|Conductivity|/mS/cm	Phase(Conductivity)/deg	Tan(Delta)	Loss Angle(Delta)/deg	dq/mA.h	
1.0000186E+006	-3.0706662E+002	-1.0510821E+002	3.2455762E+002	1.6110403E+002	02/16/2024 15:38:56.1807	9.6896660E-001	6.9901550E-001	-1.5141728E-003	-1.5880533E-004	1.000000000000000E+000	12	1.1222973E-003	3.4579291E-006	0	1.280486795140702E-004	-2.9150699E-003	-9.9782227E-004	3.0811171E-003	-1.6110403E+002	-1.5880540E-001	-4.6393919E-001	4.9036592E-001	1.0889597E+002	0.0000000E+000	0.0000000E+000	0.0000000E+000	-1.0889597E+002	0.0000000E+000	0.0000000E+000	0.0000000E+000	1.0889597E+002	0.0000000E+000	0.0000000E+000	0.0000000E+000	1.6110403E+002	0.0000000E+000	0.0000000E+000	0.0000000E+000	-1.6110403E+002	2.9214332E+000	7.1104034E+001	1.280486795140702E-004
7.1968713E+005	-2.0787091E+002	3.7785294E+002	4.3125766E+002	-1.1881683E+002	02/16/2024 15:38:56.7597	9.6938092E-001	6.9891953E-001	5.8526645E-004	4.4928878E-004	1.000000000000000E+000	12	1.2499609E-003	2.8984084E-006	0	2.384621569985498E-004	-1.1176869E-003	2.0316513E-003	2.3187995E-003	1.1881683E+002	4.4928876E-001	-2.4717043E-001	5.1279002E-001	2.8816826E+001	0.0000000E+000	0.0000000E+000	0.0000000E+000	-2.8816826E+001	0.0000000E+000	0.0000000E+000	0.0000000E+000	2.8816826E+001	0.0000000E+000	0.0000000E+000	0.0000000E+000	-1.1881683E+002	0.0000000E+000	0.0000000E+000	0.0000000E+000	1.1881683E+002	5.5013710E-001	2.8816833E+001	1.104134774844796E-004
5.1794463E+005	4.4804115E+001	1.5784680E+002	1.6408237E+002	-7.4153641E+001	02/16/2024 15:38:58.3227	9.6960825E-001	6.9881475E-001	1.9467089E-003	1.8015602E-003	1.000000000000000E+000	11	2.5020530E-003	1.5248762E-005	0	5.211967169825156E-004	1.6641563E-003	5.8628931E-003	6.0945000E-003	7.4153641E+001	1.8015602E+000	5.1136494E-001	1.8727288E+000	-1.5846359E+001	0.0000000E+000	0.0000000E+000	0.0000000E+000	1.5846359E+001	0.0000000E+000	0.0000000E+000	0.0000000E+000	-1.5846359E+001	0.0000000E+000	0.0000000E+000	0.0000000E+000	-7.4153641E+001	0.0000000E+000	0.0000000E+000	0.0000000E+000	7.4153641E+001	2.8384557E-001	1.5846359E+001	2.827345599839658E-004
3.7276388E+005	8.6212692E+001	1.2000510E+002	1.4776282E+002	-5.4306210E+001	02/16/2024 15:38:58.9007	9.6953303E-001	6.9788265E-001	3.5578418E-003	2.3466898E-003	1.000000000000000E+000	11	3.8793001E-003	2.6253560E-005	0	6.313481743530073E-004	3.9485795E-003	5.4962868E-003	6.7676026E-003	5.4306210E+001	2.3466897E+000	1.6858820E+000	2.8894897E+000	-3.5693790E+001	0.0000000E+000	0.0000000E+000	0.0000000E+000	3.5693790E+001	0.0000000E+000	0.0000000E+000	0.0000000E+000	-3.5693790E+001	0.0000000E+000	0.0000000E+000	0.0000000E+000	-5.4306210E+001	0.0000000E+000	0.0000000E+000	0.0000000E+000	5.4306210E+001	7.1840858E-001	3.5693787E+001	1.101514573704917E-004
2.6826938E+005	9.6994644E+001	1.0160632E+002	1.4046994E+002	-4.6330215E+001	02/16/2024 15:38:59.4797	9.6942389E-001	6.9699222E-001	5.8388636E-003	3.0549418E-003	1.000000000000000E+000	11	5.7462230E-003	4.0907136E-005	0	7.415564560441288E-004	4.9156500E-003	5.1493677E-003	7.1189608E-003	4.6330215E+001	3.0549417E+000	2.9162850E+000	4.2234330E+000	-4.3669785E+001	0.0000000E+000	0.0000000E+000	0.0000000E+000	4.3669785E+001	0.0000000E+000	0.0000000E+000	0.0000000E+000	-4.3669785E+001	0.0000000E+000	0.0000000E+000	0.0000000E+000	-4.6330215E+001	0.0000000E+000	0.0000000E+000	0.0000000E+000	4.6330215E+001	9.5461237E-001	4.3669785E+001	1.102082816911215E-004
1.9306711E+005	1.0651084E+002	9.4916336E+001	1.4266629E+002	-4.1705589E+001	02/16/2024 15:39:00.0587	9.6943879E-001	6.9696254E-001	8.6850217E-003	3.8442363E-003	1.000000000000000E+000	11	8.6850384E-003	6.0876595E-005	0	8.517034390877040E-004	5.2330042E-003	4.6633524E-003	7.0093642E-003	4.1705589E+001	3.8442359E+000	4.3138285E+000	5.7781715E+000	-4.8294411E+001	0.0000000E+000	0.0000000E+000	0.0000000E+000	4.8294411E+001	0.0000000E+000	0.0000000E+000	0.0000000E+000	-4.8294411E+001	0.0000000E+000	0.0000000E+000	0.0000000E+000	-4.1705589E+001	0.0000000E+000	0.0000000E+000	0.0000000E+000	4.1705589E+001	1.1221550E+000	4.8294403E+001	1.101469830435752E-004
1.3894559E+005	1.1836327E+002	9.3961700E+001	1.5112466E+002	-3.8444012E+001	02/16/2024 15:39:00.6377	9.6941942E-001	6.9735551E-001	1.2190583E-002	4.7125448E-003	1.000000000000000E+000	11	1.0305575E-002	6.8192545E-005	0	9.612567371994244E-004	5.1825829E-003	4.1141501E-003	6.6170534E-003	3.8444012E+001	4.7125444E+000	5.9363785E+000	7.5794897E+000	-5.1555988E+001	0.0000000E+000	0.0000000E+000	0.0000000E+000	5.1555988E+001	0.0000000E+000	0.0000000E+000	0.0000000E+000	-5.1555988E+001	0.0000000E+000	0.0000000E+000	0.0000000E+000	-3.8444012E+001	0.0000000E+000	0.0000000E+000	0.0000000E+000	3.8444012E+001	1.2596970E+000	5.1555984E+001	1.095532981117204E-004
1.0000371E+005	1.3218384E+002	9.6920410E+001	1.6390892E+002	-3.6249779E+001	02/16/2024 15:39:01.2167	9.6945202E-001	6.9732922E-001	1.6420590E-002	5.7413504E-003	1.000000000000000E+000	11	1.0571901E-002	6.4498628E-005	0	1.071728095035282E-003	4.9200915E-003	3.6075313E-003	6.1009494E-003	3.6249779E+001	5.7413511E+000	7.8302784E+000	9.7096024E+000	-5.3750221E+001	0.0000000E+000	0.0000000E+000	0.0000000E+000	5.3750221E+001	0.0000000E+000	0.0000000E+000	0.0000000E+000	-5.3750221E+001	0.0000000E+000	0.0000000E+000	0.0000000E+000	-3.6249779E+001	0.0000000E+000	0.0000000E+000	0.0000000E+000	3.6249779E+001	1.3638390E+000	5.3750221E+001	1.104713578358576E-004
7.1964070E+004	1.4893919E+002	1.0578047E+002	1.8268112E+002	-3.5383354E+001	02/16/2024 15:39:01.7967	9.6943313E-001	6.9674587E-001	2.0907346E-002	7.0100734E-003	1.000000000000000E+000	11	1.0658921E-002	5.8347137E-005	0	1.181760648015984E-003	4.4629462E-003	3.1696998E-003	5.4740193E-003	3.5383354E+001	7.0100732E+000	9.8702030E+000	1.2106280E+001	-5.4616646E+001	0.0000000E+000	0.0000000E+000	0.0000000E+000	5.4616646E+001	0.0000000E+000	0.0000000E+000	0.0000000E+000	-5.4616646E+001	0.0000000E+000	0.0000000E+000	0.0000000E+000	-3.5383354E+001	0.0000000E+000	0.0000000E+000	0.0000000E+000	3.5383354E+001	1.4080027E+000	5.4616646E+001	1.100325529807015E-004
5.1792605E+004	1.7208887E+002	1.1714037E+002	2.0817407E+002	-3.4243000E+001	02/16/2024 15:39:02.3757	9.6948266E-001	6.9625950E-001	2.6232870E-002	8.3062630E-003	1.000000000000000E+000	11	1.0733773E-002	5.1561528E-005	0	1.292235200053314E-003	3.9709965E-003	2.7030450E-003	4.8036720E-003	3.4243000E+001	8.3062630E+000	1.2202586E+001	1.4761338E+001	-5.5757000E+001	0.0000000E+000	0.0000000E+000	0.0000000E+000	5.5757000E+001	0.0000000E+000	0.0000000E+000	0.0000000E+000	-5.5757000E+001	0.0000000E+000	0.0000000E+000	0.0000000E+000	-3.4243000E+001	0.0000000E+000	0.0000000E+000	0.0000000E+000	3.4243000E+001	1.4690826E+000	5.5757004E+001	1.104745520373303E-004
3.7271750E+004	2.0301357E+002	1.2618913E+002	2.3903600E+002	-3.1864250E+001	02/16/2024 15:39:02.9547	9.6950448E-001	6.9643706E-001	3.3839069E-002	9.4305212E-003	1.000000000000000E+000	11	1.0741922E-002	4.4938512E-005	0	1.402606490468108E-003	3.5530266E-003	2.2084897E-003	4.1834703E-003	3.1864250E+001	9.4305220E+000	1.5171860E+001	1.7863932E+001	-5.8135750E+001	0.0000000E+000	0.0000000E+000	0.0000000E+000	5.8135750E+001	0.0000000E+000	0.0000000E+000	0.0000000E+000	-5.8135750E+001	0.0000000E+000	0.0000000E+000	0.0000000E+000	-3.1864250E+001	0.0000000E+000	0.0000000E+000	0.0000000E+000	3.1864250E+001	1.6088039E+000	5.8135750E+001	1.103712904147946E-004
2.6824154E+004	2.3920366E+002	1.2974326E+002	2.7212442E+002	-2.8475254E+001	02/16/2024 15:39:03.5337	9.6948594E-001	6.9687575E-001	4.5730852E-002	1.0395464E-002	1.000000000000000E+000	11	1.0695920E-002	3.9305258E-005	0	1.513170653973499E-003	3.2302251E-003	1.7520630E-003	3.6747896E-003	2.8475254E+001	1.0395463E+001	1.9165796E+001	2.1803518E+001	-6.1524746E+001	0.0000000E+000	0.0000000E+000	0.0000000E+000	6.1524746E+001	0.0000000E+000	0.0000000E+000	0.0000000E+000	-6.1524746E+001	0.0000000E+000	0.0000000E+000	0.0000000E+000	-2.8475254E+001	0.0000000E+000	0.0000000E+000	0.0000000E+000	2.8475254E+001	1.8436693E+000	6.1524750E+001	1.105641635053907E-004
1.9308566E+004	2.7698129E+002	1.2327410E+002	3.0317511E+002	-2.3992073E+001	02/16/2024 15:39:04.1127	9.6950859E-001	6.9711894E-001	6.6864908E-002	1.1054901E-002	1.000000000000000E+000	11	1.0578356E-002	3.4891902E-005	0	1.623029807941665E-003	3.0134455E-003	1.3411728E-003	3.2984237E-003	2.3992073E+001	1.1054901E+001	2.4838963E+001	2.7187956E+001	-6.6007927E+001	0.0000000E+000	0.0000000E+000	0.0000000E+000	6.6007927E+001	0.0000000E+000	0.0000000E+000	0.0000000E+000	-6.6007927E+001	0.0000000E+000	0.0000000E+000	0.0000000E+000	-2.3992073E+001	0.0000000E+000	0.0000000E+000	0.0000000E+000	2.3992073E+001	2.2468734E+000	6.6007927E+001	1.098591539681656E-004
1.3899199E+004	3.0825739E+002	1.0603741E+002	3.2598550E+002	-1.8982697E+001	02/16/2024 15:39:04.6917	9.6948993E-001	6.9667709E-001	1.0798694E-001	1.1425965E-002	1.000000000000000E+000	11	1.0460854E-002	3.2089934E-005	0	1.732820632248574E-003	2.9007941E-003	9.9784369E-004	3.0676210E-003	1.8982697E+001	1.1425965E+001	3.3215996E+001	3.5126274E+001	-7.1017303E+001	0.0000000E+000	0.0000000E+000	0.0000000E+000	7.1017303E+001	0.0000000E+000	0.0000000E+000	0.0000000E+000	-7.1017303E+001	0.0000000E+000	0.0000000E+000	0.0000000E+000	-1.8982697E+001	0.0000000E+000	0.0000000E+000	0.0000000E+000	1.8982697E+001	2.9070628E+000	7.1017303E+001	1.097908243069088E-004
1.0002226E+004	3.3084879E+002	8.8249008E+001	3.4241614E+002	-1.4935081E+001	02/16/2024 15:39:05.2697	9.6950799E-001	6.9621772E-001	1.8030745E-001	1.1976361E-002	1.000000000000000E+000	11	1.0398950E-002	3.0369336E-005	0	1.842842850888691E-003	2.8217668E-003	7.5266446E-004	2.9204232E-003	1.4935081E+001	1.1976362E+001	4.4899822E+001	4.6469639E+001	-7.5064919E+001	0.0000000E+000	0.0000000E+000	0.0000000E+000	7.5064919E+001	0.0000000E+000	0.0000000E+000	0.0000000E+000	-7.5064919E+001	0.0000000E+000	0.0000000E+000	0.0000000E+000	-1.4935081E+001	0.0000000E+000	0.0000000E+000	0.0000000E+000	1.4935081E+001	3.7490368E+000	7.5064919E+001	1.100222186401177E-004
7.1953535E+003	3.4595660E+002	7.0655579E+001	3.5309799E+002	-1.1542918E+001	02/16/2024 15:39:05.9796	9.6954072E-001	6.9671333E-001	3.1305566E-001	1.2534989E-002	1.000000000000000E+000	11	1.0227529E-002	2.8965131E-005	0	1.977685498646195E-003	2.7747967E-003	5.6670362E-004	2.8320751E-003	1.1542918E+001	1.2534986E+001	6.1376083E+001	6.2643032E+001	-7.8457085E+001	0.0000000E+000	0.0000000E+000	0.0000000E+000	7.8457085E+001	0.0000000E+000	0.0000000E+000	0.0000000E+000	-7.8457085E+001	0.0000000E+000	0.0000000E+000	0.0000000E+000	-1.1542918E+001	0.0000000E+000	0.0000000E+000	0.0000000E+000	1.1542918E+001	4.8963804E+000	7.8457085E+001	1.348426477575041E-004
5.1814517E+003	3.5601498E+002	5.7913475E+001	3.6069467E+002	-9.2394562E+000	02/16/2024 15:39:06.9065	9.6949810E-001	6.9660223E-001	5.3038234E-001	1.3673158E-002	1.000000000000000E+000	11	1.0118326E-002	2.8052331E-005	0	2.154673531782089E-003	2.7364583E-003	4.4514364E-004	2.7724281E-003	9.2394562E+000	1.3673159E+001	8.4053833E+001	8.5158691E+001	-8.0760544E+001	0.0000000E+000	0.0000000E+000	0.0000000E+000	8.0760544E+001	0.0000000E+000	0.0000000E+000	0.0000000E+000	-8.0760544E+001	0.0000000E+000	0.0000000E+000	0.0000000E+000	-9.2394562E+000	0.0000000E+000	0.0000000E+000	0.0000000E+000	9.2394562E+000	6.1473598E+000	8.0760544E+001	1.769880331358937E-004
3.7264229E+003	3.6201331E+002	4.5772121E+001	3.6489551E+002	-7.2061076E+000	02/16/2024 15:39:07.6043	9.6947634E-001	6.9663399E-001	9.3309736E-001	1.4682230E-002	1.000000000000000E+000	11	1.0606702E-002	2.9067780E-005	0	2.287876849733229E-003	2.7188642E-003	3.4376688E-004	2.7405105E-003	7.2061076E+000	1.4682232E+001	1.1612228E+002	1.1704679E+002	-8.2793892E+001	0.0000000E+000	0.0000000E+000	0.0000000E+000	8.2793892E+001	0.0000000E+000	0.0000000E+000	0.0000000E+000	-8.2793892E+001	0.0000000E+000	0.0000000E+000	0.0000000E+000	-7.2061076E+000	0.0000000E+000	0.0000000E+000	0.0000000E+000	7.2061076E+000	7.9090347E+000	8.2793892E+001	1.332033179511395E-004
2.6824250E+003	3.6764523E+002	3.7446533E+001	3.6954736E+002	-5.8158097E+000	02/16/2024 15:39:08.3023	9.6950316E-001	6.9675177E-001	1.5844586E+000	1.6269116E-002	1.000000000000000E+000	11	1.0910620E-002	2.9524281E-005	0	2.421375571106315E-003	2.6920848E-003	2.7420252E-004	2.7060132E-003	5.8158097E+000	1.6269119E+001	1.5972806E+002	1.6055447E+002	-8.4184189E+001	0.0000000E+000	0.0000000E+000	0.0000000E+000	8.4184189E+001	0.0000000E+000	0.0000000E+000	0.0000000E+000	-8.4184189E+001	0.0000000E+000	0.0000000E+000	0.0000000E+000	-5.8158097E+000	0.0000000E+000	0.0000000E+000	0.0000000E+000	5.8158097E+000	9.8178711E+000	8.4184189E+001	1.334987213730864E-004
1.9306176E+003	3.6958328E+002	3.1614191E+001	3.7093295E+002	-4.8891850E+000	02/16/2024 15:39:09.2331	9.6951693E-001	6.9682831E-001	2.6076050E+000	1.8941533E-002	1.000000000000000E+000	11	1.0011084E-002	2.6988933E-005	0	2.599487186697557E-003	2.6860957E-003	2.2976889E-004	2.6959050E-003	4.8891850E+000	1.8941525E+001	2.2143454E+002	2.2224319E+002	-8.5110817E+001	0.0000000E+000	0.0000000E+000	0.0000000E+000	8.5110817E+001	0.0000000E+000	0.0000000E+000	0.0000000E+000	-8.5110817E+001	0.0000000E+000	0.0000000E+000	0.0000000E+000	-4.8891850E+000	0.0000000E+000	0.0000000E+000	0.0000000E+000	4.8891850E+000	1.1690424E+001	8.5110817E+001	1.781116155912424E-004
1.3886667E+003	3.7615775E+002	3.1119713E+001	3.7744281E+002	-4.7293377E+000	02/16/2024 15:39:09.9314	9.6950465E-001	6.9682962E-001	3.6828711E+000	2.5035447E-002	1.000000000000000E+000	11	1.0156417E-002	2.6908492E-005	0	2.732880185266756E-003	2.6403877E-003	2.1844056E-004	2.6494081E-003	4.7293377E+000	2.5035460E+001	3.0261453E+002	3.0364838E+002	-8.5270660E+001	0.0000000E+000	0.0000000E+000	0.0000000E+000	8.5270660E+001	0.0000000E+000	0.0000000E+000	0.0000000E+000	-8.5270660E+001	0.0000000E+000	0.0000000E+000	0.0000000E+000	-4.7293377E+000	0.0000000E+000	0.0000000E+000	0.0000000E+000	4.7293377E+000	1.2087442E+001	8.5270660E+001	1.333929985691991E-004
1.0003202E+003	3.7824838E+002	2.6478933E+001	3.7917407E+002	-4.0044060E+000	02/16/2024 15:39:10.6281	9.6949905E-001	6.9686157E-001	6.0087013E+000	2.9302476E-002	1.000000000000000E+000	11	1.0140214E-002	2.6742900E-005	0	2.866067185030933E-003	2.6308727E-003	1.8417183E-004	2.6373111E-003	4.0044060E+000	2.9302504E+001	4.1858237E+002	4.1960675E+002	-8.5995590E+001	0.0000000E+000	0.0000000E+000	0.0000000E+000	8.5995590E+001	0.0000000E+000	0.0000000E+000	0.0000000E+000	-8.5995590E+001	0.0000000E+000	0.0000000E+000	0.0000000E+000	-4.0044060E+000	0.0000000E+000	0.0000000E+000	0.0000000E+000	4.0044060E+000	1.4284880E+001	8.5995590E+001	1.331869997641768E-004
7.1930957E+002	3.8043179E+002	2.7911301E+001	3.8145432E+002	-4.1961255E+000	02/16/2024 15:39:11.3253	9.6952277E-001	6.9690800E-001	7.9272809E+000	4.2442340E-002	1.000000000000000E+000	11	1.0127498E-002	2.6549700E-005	0	2.999596532157629E-003	2.6145186E-003	1.9182049E-004	2.6215459E-003	4.1961255E+000	4.2442371E+001	5.7849023E+002	5.8004510E+002	-8.5803871E+001	0.0000000E+000	0.0000000E+000	0.0000000E+000	8.5803871E+001	0.0000000E+000	0.0000000E+000	0.0000000E+000	-8.5803871E+001	0.0000000E+000	0.0000000E+000	0.0000000E+000	-4.1961255E+000	0.0000000E+000	0.0000000E+000	0.0000000E+000	4.1961255E+000	1.3630028E+001	8.5803871E+001	1.335293471266957E-004
5.1817603E+002	3.8626312E+002	3.0169456E+001	3.8743954E+002	-4.4660754E+000	02/16/2024 15:39:12.0249	9.6950096E-001	6.9692391E-001	1.0180646E+001	6.1730873E-002	1.000000000000000E+000	11	1.0158876E-002	2.6220545E-005	0	3.133232124157742E-003	2.5732107E-003	2.0098312E-004	2.5810478E-003	4.4660754E+000	6.1730831E+001	7.9034772E+002	7.9275482E+002	-8.5533928E+001	0.0000000E+000	0.0000000E+000	0.0000000E+000	8.5533928E+001	0.0000000E+000	0.0000000E+000	0.0000000E+000	-8.5533928E+001	0.0000000E+000	0.0000000E+000	0.0000000E+000	-4.4660754E+000	0.0000000E+000	0.0000000E+000	0.0000000E+000	4.4660754E+000	1.2803119E+001	8.5533928E+001	1.336355920001126E-004
3.7273376E+002	3.9267154E+002	3.2381966E+001	3.9400449E+002	-4.7142739E+000	02/16/2024 15:39:12.7243	9.6952266E-001	6.9687104E-001	1.3186154E+001	8.9068115E-002	1.000000000000000E+000	11	1.0171715E-002	2.5816242E-005	0	3.267203411598961E-003	2.5294558E-003	2.0859356E-004	2.5380421E-003	4.7142739E+000	8.9068077E+001	1.0800616E+003	1.0837279E+003	-8.5285728E+001	0.0000000E+000	0.0000000E+000	0.0000000E+000	8.5285728E+001	0.0000000E+000	0.0000000E+000	0.0000000E+000	-8.5285728E+001	0.0000000E+000	0.0000000E+000	0.0000000E+000	-4.7142739E+000	0.0000000E+000	0.0000000E+000	0.0000000E+000	4.7142739E+000	1.2126242E+001	8.5285728E+001	1.339712874412198E-004
2.6836835E+002	4.0053653E+002	3.3018448E+001	4.0189517E+002	-4.7125530E+000	02/16/2024 15:39:13.4254	9.6949869E-001	6.9678485E-001	1.7961069E+001	1.2123274E-001	1.000000000000000E+000	11	1.0183415E-002	2.5338486E-005	0	3.401013320530810E-003	2.4797993E-003	2.0442360E-004	2.4882110E-003	4.7125530E+000	1.2123278E+002	1.4706366E+003	1.4756251E+003	-8.5287445E+001	0.0000000E+000	0.0000000E+000	0.0000000E+000	8.5287445E+001	0.0000000E+000	0.0000000E+000	0.0000000E+000	-8.5287445E+001	0.0000000E+000	0.0000000E+000	0.0000000E+000	-4.7125530E+000	0.0000000E+000	0.0000000E+000	0.0000000E+000	4.7125530E+000	1.2130690E+001	8.5287445E+001	1.338099089318485E-004
1.9308463E+002	4.0913297E+002	3.3433365E+001	4.1049673E+002	-4.6716938E+000	02/16/2024 15:39:14.1282	9.6955985E-001	6.9687670E-001	2.4654280E+001	1.6354343E-001	1.000000000000000E+000	11	1.0185402E-002	2.4812382E-005	0	3.535337946400131E-003	2.4279798E-003	1.9840870E-004	2.4360730E-003	4.6716938E+000	1.6354337E+002	2.0013243E+003	2.0079954E+003	-8.5328308E+001	0.0000000E+000	0.0000000E+000	0.0000000E+000	8.5328308E+001	0.0000000E+000	0.0000000E+000	0.0000000E+000	-8.5328308E+001	0.0000000E+000	0.0000000E+000	0.0000000E+000	-4.6716938E+000	0.0000000E+000	0.0000000E+000	0.0000000E+000	4.6716938E+000	1.2237266E+001	8.5328308E+001	1.343246258693207E-004
1.3897710E+002	4.1876639E+002	3.4967659E+001	4.2022379E+002	-4.7732153E+000	02/16/2024 15:39:14.8296	9.6950293E-001	6.9688433E-001	3.2749928E+001	2.2676821E-001	1.000000000000000E+000	11	1.0205783E-002	2.4286543E-005	0	3.669388508291766E-003	2.3714313E-003	1.9801829E-004	2.3796845E-003	4.7732153E+000	2.2676826E+002	2.7157354E+003	2.7251868E+003	-8.5226784E+001	0.0000000E+000	0.0000000E+000	0.0000000E+000	8.5226784E+001	0.0000000E+000	0.0000000E+000	0.0000000E+000	-8.5226784E+001	0.0000000E+000	0.0000000E+000	0.0000000E+000	-4.7732153E+000	0.0000000E+000	0.0000000E+000	0.0000000E+000	4.7732153E+000	1.1975820E+001	8.5226784E+001	1.340505618916358E-004
1.0003201E+002	4.2763278E+002	3.1996283E+001	4.2882813E+002	-4.2790036E+000	02/16/2024 15:39:15.5271	9.6952391E-001	6.9701558E-001	4.9725780E+001	2.7683064E-001	1.000000000000000E+000	11	1.0198313E-002	2.3781819E-005	0	3.802324201396841E-003	2.3254363E-003	1.7399347E-004	2.3319365E-003	4.2790036E+000	2.7683084E+002	3.6998628E+003	3.7102048E+003	-8.5720993E+001	0.0000000E+000	0.0000000E+000	0.0000000E+000	8.5720993E+001	0.0000000E+000	0.0000000E+000	0.0000000E+000	-8.5720993E+001	0.0000000E+000	0.0000000E+000	0.0000000E+000	-4.2790036E+000	0.0000000E+000	0.0000000E+000	0.0000000E+000	4.2790036E+000	1.3365077E+001	8.5720993E+001	1.329356931050749E-004
7.1957260E+001	4.3084778E+002	2.4949099E+001	4.3156955E+002	-3.3141251E+000	02/16/2024 15:39:16.2087	9.6947753E-001	6.9724160E-001	8.8652435E+001	2.9627758E-001	1.000000000000000E+000	11	1.0194526E-002	2.3621977E-005	0	3.932426306322424E-003	2.3132483E-003	1.3395325E-004	2.3171236E-003	3.3141251E+000	2.9627759E+002	5.1164390E+003	5.1250103E+003	-8.6685875E+001	0.0000000E+000	0.0000000E+000	0.0000000E+000	8.6685875E+001	0.0000000E+000	0.0000000E+000	0.0000000E+000	-8.6685875E+001	0.0000000E+000	0.0000000E+000	0.0000000E+000	-3.3141251E+000	0.0000000E+000	0.0000000E+000	0.0000000E+000	3.3141251E+000	1.7269072E+001	8.6685875E+001	1.301021049255830E-004
5.1807030E+001	4.3999460E+002	1.4089801E+001	4.4022012E+002	-1.8341370E+000	02/16/2024 15:39:16.8831	9.6950424E-001	6.9695789E-001	2.1803520E+002	2.2335544E-001	1.000000000000000E+000	11	1.0147594E-002	2.3051181E-005	0	4.061426091535793E-003	2.2704268E-003	7.2705130E-005	2.2715908E-003	1.8341370E+000	2.2335542E+002	6.9749160E+003	6.9784912E+003	-8.8165863E+001	0.0000000E+000	0.0000000E+000	0.0000000E+000	8.8165863E+001	0.0000000E+000	0.0000000E+000	0.0000000E+000	-8.8165863E+001	0.0000000E+000	0.0000000E+000	0.0000000E+000	-1.8341370E+000	0.0000000E+000	0.0000000E+000	0.0000000E+000	1.8341370E+000	3.1227879E+001	8.8165863E+001	1.289997852133686E-004
3.7253067E+001	4.5068344E+002	1.8693117E+001	4.5107095E+002	-2.3751109E+000	02/16/2024 15:39:17.5440	9.6949333E-001	6.9696552E-001	2.2854744E+002	3.9250946E-001	1.000000000000000E+000	11	1.0202391E-002	2.2618151E-005	0	4.187760349736866E-003	2.2150415E-003	9.1873866E-005	2.2169461E-003	2.3751109E+000	3.9251004E+002	9.4632432E+003	9.4713799E+003	-8.7624886E+001	0.0000000E+000	0.0000000E+000	0.0000000E+000	8.7624886E+001	0.0000000E+000	0.0000000E+000	0.0000000E+000	-8.7624886E+001	0.0000000E+000	0.0000000E+000	0.0000000E+000	-2.3751109E+000	0.0000000E+000	0.0000000E+000	0.0000000E+000	2.3751109E+000	2.4109592E+001	8.7624886E+001	1.263342582010730E-004
2.6828640E+001	4.4697018E+002	1.6006252E+001	4.4725668E+002	-2.0509176E+000	02/16/2024 15:39:18.2005	9.6951526E-001	6.9737679E-001	3.7062253E+002	4.7467619E-001	1.000000000000000E+000	11	1.0181024E-002	2.2763268E-005	0	4.313139767296062E-003	2.2344205E-003	8.0015845E-005	2.2358526E-003	2.0509176E+000	4.7467648E+002	1.3255203E+004	1.3263699E+004	-8.7949081E+001	0.0000000E+000	0.0000000E+000	0.0000000E+000	8.7949081E+001	0.0000000E+000	0.0000000E+000	0.0000000E+000	-8.7949081E+001	0.0000000E+000	0.0000000E+000	0.0000000E+000	-2.0509176E+000	0.0000000E+000	0.0000000E+000	0.0000000E+000	2.0509176E+000	2.7924725E+001	8.7949081E+001	1.253794175591965E-004
1.9313969E+001	4.5351785E+002	4.6027498E+000	4.5354120E+002	-5.8147454E-001	02/16/2024 15:39:18.9183	9.6955037E-001	6.9751495E-001	1.7903224E+003	1.8438794E-001	1.000000000000000E+000	11	1.0192905E-002	2.2474043E-005	0	4.450435094232917E-003	2.2047576E-003	2.2376073E-005	2.2048713E-003	5.8147454E-001	1.8438785E+002	1.8168100E+004	1.8169035E+004	-8.9418526E+001	0.0000000E+000	0.0000000E+000	0.0000000E+000	8.9418526E+001	0.0000000E+000	0.0000000E+000	0.0000000E+000	-8.9418526E+001	0.0000000E+000	0.0000000E+000	0.0000000E+000	-5.8147454E-001	0.0000000E+000	0.0000000E+000	0.0000000E+000	5.8147454E-001	9.8531937E+001	8.9418526E+001	1.372953269368543E-004
1.3884775E+001	4.5334601E+002	7.8452497E+000	4.5341388E+002	-9.9141681E-001	02/16/2024 15:39:19.6652	9.6949816E-001	6.9744182E-001	1.4610817E+003	4.3741980E-001	1.000000000000000E+000	11	1.0184065E-002	2.2460858E-005	0	4.593232033060114E-003	2.2051604E-003	3.8160775E-005	2.2054906E-003	9.9141681E-001	4.3741986E+002	2.5276762E+004	2.5280547E+004	-8.9008583E+001	0.0000000E+000	0.0000000E+000	0.0000000E+000	8.9008583E+001	0.0000000E+000	0.0000000E+000	0.0000000E+000	-8.9008583E+001	0.0000000E+000	0.0000000E+000	0.0000000E+000	-9.9141681E-001	0.0000000E+000	0.0000000E+000	0.0000000E+000	9.9141681E-001	5.7786053E+001	8.9008583E+001	1.427969388271971E-004
1.0003201E+001	4.5319684E+002	5.2327180E+000	4.5322705E+002	-6.6152120E-001	02/16/2024 15:39:20.3601	9.6948737E-001	6.9748855E-001	3.0405615E+003	4.0530020E-001	1.000000000000000E+000	11	1.0178551E-002	2.2457951E-005	0	4.726318782745318E-003	2.2062524E-003	2.5473912E-005	2.2063996E-003	6.6152120E-001	4.0530060E+002	3.5102363E+004	3.5104703E+004	-8.9338478E+001	0.0000000E+000	0.0000000E+000	0.0000000E+000	8.9338478E+001	0.0000000E+000	0.0000000E+000	0.0000000E+000	-8.9338478E+001	0.0000000E+000	0.0000000E+000	0.0000000E+000	-6.6152120E-001	0.0000000E+000	0.0000000E+000	0.0000000E+000	6.6152120E-001	8.6608307E+001	8.9338478E+001	1.330867496852038E-004
7.1938338E+000	4.5614294E+002	4.5726418E+000	4.5616586E+002	-5.7434690E-001	02/16/2024 15:39:20.8740	9.6951169E-001	6.9748765E-001	4.8382974E+003	4.8616236E-001	1.000000000000000E+000	11	1.0169963E-002	2.2294442E-005	0	4.824644185145191E-003	2.1920749E-003	2.1974631E-005	2.1921850E-003	5.7434690E-001	4.8616370E+002	4.8497031E+004	4.8499469E+004	-8.9425652E+001	0.0000000E+000	0.0000000E+000	0.0000000E+000	8.9425652E+001	0.0000000E+000	0.0000000E+000	0.0000000E+000	-8.9425652E+001	0.0000000E+000	0.0000000E+000	0.0000000E+000	-5.7434690E-001	0.0000000E+000	0.0000000E+000	0.0000000E+000	5.7434690E-001	9.9754791E+001	8.9425652E+001	9.832540239987364E-005
5.1807032E+000	4.5412112E+002	4.0946059E+000	4.5413959E+002	-5.1659632E-001	02/16/2024 15:39:21.5511	9.6952248E-001	6.9733161E-001	7.5027300E+003	6.0990864E-001	1.000000000000000E+000	11	1.0160743E-002	2.2373613E-005	0	4.954080251098494E-003	2.2018768E-003	1.9853334E-005	2.2019662E-003	5.1659632E-001	6.0990594E+002	6.7643242E+004	6.7645992E+004	-8.9483406E+001	0.0000000E+000	0.0000000E+000	0.0000000E+000	8.9483406E+001	0.0000000E+000	0.0000000E+000	0.0000000E+000	-8.9483406E+001	0.0000000E+000	0.0000000E+000	0.0000000E+000	-5.1659632E-001	0.0000000E+000	0.0000000E+000	0.0000000E+000	5.1659632E-001	1.1090717E+002	8.9483406E+001	1.294360659533028E-004
3.7273378E+000	4.5374643E+002	-5.4404765E-001	4.5374677E+002	6.8698324E-002	02/16/2024 15:39:22.4566	9.6948951E-001	6.9771975E-001	-7.8484602E+004	-1.1283173E-001	1.000000000000000E+000	11	1.0182817E-002	2.2441629E-005	0	5.127369718094427E-003	2.2038708E-003	-2.6424686E-006	2.2038724E-003	-6.8698324E-002	-1.1282638E+002	9.4103875E+004	9.4103945E+004	-9.0068695E+001	0.0000000E+000	0.0000000E+000	0.0000000E+000	9.0068695E+001	0.0000000E+000	0.0000000E+000	0.0000000E+000	-9.0068695E+001	0.0000000E+000	0.0000000E+000	0.0000000E+000	6.8698324E-002	0.0000000E+000	0.0000000E+000	0.0000000E+000	-6.8698324E-002	8.3401965E+002	8.9931305E+001	1.732894669959333E-004
2.6847079E+000	4.5321030E+002	9.8483956E-001	4.5321136E+002	-1.2450525E-001	02/16/2024 15:39:23.6851	9.6951109E-001	6.9771898E-001	6.0194609E+004	2.8424117E-001	1.000000000000000E+000	11	1.0190293E-002	2.2484637E-005	0	5.363049103683617E-003	2.2064708E-003	4.7947269E-006	2.2064759E-003	1.2450525E-001	2.8423853E+002	1.3080407E+005	1.3080438E+005	-8.9875496E+001	0.0000000E+000	0.0000000E+000	0.0000000E+000	8.9875496E+001	0.0000000E+000	0.0000000E+000	0.0000000E+000	-8.9875496E+001	0.0000000E+000	0.0000000E+000	0.0000000E+000	-1.2450525E-001	0.0000000E+000	0.0000000E+000	0.0000000E+000	1.2450525E-001	4.6018692E+002	8.9875496E+001	2.356793855891898E-004
1.9299656E+000	4.5274500E+002	-1.6196574E+000	4.5274789E+002	2.0496999E-001	02/16/2024 15:39:25.3611	9.6951437E-001	6.9786221E-001	-5.0915195E+004	-6.5159965E-001	1.000000000000000E+000	11	1.0196893E-002	2.2522230E-005	0	5.686753955732119E-003	2.2087204E-003	-7.9015126E-006	2.2087346E-003	-2.0496999E-001	-6.5160388E+002	1.8214252E+005	1.8214369E+005	-9.0204971E+001	0.0000000E+000	0.0000000E+000	0.0000000E+000	9.0204971E+001	0.0000000E+000	0.0000000E+000	0.0000000E+000	-9.0204971E+001	0.0000000E+000	0.0000000E+000	0.0000000E+000	2.0496999E-001	0.0000000E+000	0.0000000E+000	0.0000000E+000	-2.0496999E-001	2.7953134E+002	8.9795029E+001	3.237048520485022E-004
1.3881482E+000	4.4994669E+002	-1.6976452E+000	4.4994989E+002	2.1617548E-001	02/16/2024 15:39:27.6659	9.6951383E-001	6.9811517E-001	-6.7536320E+004	-9.6139735E-001	1.000000000000000E+000	11	1.0181632E-002	2.2628368E-005	0	6.131862313675338E-003	2.2224539E-003	-8.3853010E-006	2.2224698E-003	-2.1617548E-001	-9.6141254E+002	2.5481034E+005	2.5481216E+005	-9.0216179E+001	0.0000000E+000	0.0000000E+000	0.0000000E+000	9.0216179E+001	0.0000000E+000	0.0000000E+000	0.0000000E+000	-9.0216179E+001	0.0000000E+000	0.0000000E+000	0.0000000E+000	2.1617548E-001	0.0000000E+000	0.0000000E+000	0.0000000E+000	-2.1617548E-001	2.6504166E+002	8.9783821E+001	4.451083579432190E-004
1.0000639E+000	4.4923169E+002	-3.0974596E+000	4.4924237E+002	3.9504904E-001	02/16/2024 15:39:30.8361	9.6951473E-001	6.9831556E-001	-5.1379129E+004	-2.4425113E+000	1.000000000000000E+000	11	1.0181885E-002	2.2664570E-005	0	6.744118597700209E-003	2.2259171E-003	-1.5347732E-005	2.2259699E-003	-3.9504904E-001	-2.4425176E+003	3.5424306E+005	3.5425147E+005	-9.0395050E+001	0.0000000E+000	0.0000000E+000	0.0000000E+000	9.0395050E+001	0.0000000E+000	0.0000000E+000	0.0000000E+000	-9.0395050E+001	0.0000000E+000	0.0000000E+000	0.0000000E+000	3.9504904E-001	0.0000000E+000	0.0000000E+000	0.0000000E+000	-3.9504904E-001	1.4503230E+002	8.9604950E+001	6.122562840248707E-004
7.2017908E-001	4.4875723E+002	-3.3062572E+000	4.4876941E+002	4.2212391E-001	02/16/2024 15:39:35.2128	9.6951693E-001	6.9865364E-001	-6.6841008E+004	-3.6280208E+000	1.000000000000000E+000	11	1.0185777E-002	2.2697130E-005	0	7.590070703954255E-003	2.2282554E-003	-1.6416861E-005	2.2283159E-003	-4.2212391E-001	-3.6280452E+003	4.9243006E+005	4.9244344E+005	-9.0422127E+001	0.0000000E+000	0.0000000E+000	0.0000000E+000	9.0422127E+001	0.0000000E+000	0.0000000E+000	0.0000000E+000	-9.0422127E+001	0.0000000E+000	0.0000000E+000	0.0000000E+000	4.2212391E-001	0.0000000E+000	0.0000000E+000	0.0000000E+000	-4.2212391E-001	1.3572968E+002	8.9577873E+001	8.459521062540460E-004
5.1752120E-001	4.4690741E+002	-3.7755833E+000	4.4692337E+002	4.8403725E-001	02/16/2024 15:39:41.2779	9.6951479E-001	6.9902545E-001	-8.1453164E+004	-5.8131285E+000	1.000000000000000E+000	11	1.0183265E-002	2.2785258E-005	0	8.764477773547897E-003	2.2374401E-003	-1.8902441E-005	2.2375199E-003	-4.8403725E-001	-5.8131528E+003	6.8808706E+005	6.8811163E+005	-9.0484039E+001	0.0000000E+000	0.0000000E+000	0.0000000E+000	9.0484039E+001	0.0000000E+000	0.0000000E+000	0.0000000E+000	-9.0484039E+001	0.0000000E+000	0.0000000E+000	0.0000000E+000	4.8403725E-001	0.0000000E+000	0.0000000E+000	0.0000000E+000	-4.8403725E-001	1.1836778E+002	8.9515961E+001	1.174407069593642E-003
3.7244946E-001	4.4478061E+002	-3.3685067E+000	4.4479337E+002	4.3391624E-001	02/16/2024 15:39:49.6797	9.6951777E-001	6.9956660E-001	-1.2685728E+005	-7.2756801E+000	1.000000000000000E+000	11	1.0189759E-002	2.2908971E-005	0	1.039499171010865E-002	2.2481706E-003	-1.7026321E-005	2.2482350E-003	-4.3391624E-001	-7.2756460E+003	9.6068725E+005	9.6071481E+005	-9.0433914E+001	0.0000000E+000	0.0000000E+000	0.0000000E+000	9.0433914E+001	0.0000000E+000	0.0000000E+000	0.0000000E+000	-9.0433914E+001	0.0000000E+000	0.0000000E+000	0.0000000E+000	4.3391624E-001	0.0000000E+000	0.0000000E+000	0.0000000E+000	-4.3391624E-001	1.3204089E+002	8.9566086E+001	1.630513936560756E-003
2.6843393E-001	4.4096661E+002	-2.5340073E+000	4.4097391E+002	3.2924563E-001	02/16/2024 15:40:01.3112	9.6952206E-001	7.0021892E-001	-2.3397792E+005	-7.7261796E+000	1.000000000000000E+000	11	1.0187605E-002	2.3102513E-005	0	1.265657081816107E-002	2.2676704E-003	-1.3031131E-005	2.2677078E-003	-3.2924563E-001	-7.7262007E+003	1.3445056E+006	1.3445279E+006	-9.0329247E+001	0.0000000E+000	0.0000000E+000	0.0000000E+000	9.0329247E+001	0.0000000E+000	0.0000000E+000	0.0000000E+000	-9.0329247E+001	0.0000000E+000	0.0000000E+000	0.0000000E+000	3.2924563E-001	0.0000000E+000	0.0000000E+000	0.0000000E+000	-3.2924563E-001	1.7401947E+002	8.9670753E+001	2.261579108052421E-003
1.9284412E-001	4.3530493E+002	-3.1491706E+000	4.3531631E+002	4.1449344E-001	02/16/2024 15:40:17.4806	9.6951449E-001	7.0109642E-001	-2.6207011E+005	-1.3715133E+001	1.000000000000000E+000	11	1.0183828E-002	2.3394088E-005	0	1.580409652293805E-002	2.2971202E-003	-1.6618289E-005	2.2971802E-003	-4.1449344E-001	-1.3715011E+004	1.8958214E+006	1.8958710E+006	-9.0414490E+001	0.0000000E+000	0.0000000E+000	0.0000000E+000	9.0414490E+001	0.0000000E+000	0.0000000E+000	0.0000000E+000	-9.0414490E+001	0.0000000E+000	0.0000000E+000	0.0000000E+000	4.1449344E-001	0.0000000E+000	0.0000000E+000	0.0000000E+000	-4.1449344E-001	1.3822844E+002	8.9585510E+001	3.147525704776973E-003
1.3893336E-001	4.2885907E+002	-4.5184541E+000	4.2888287E+002	6.0364527E-001	02/16/2024 15:40:39.8990	9.6951574E-001	7.0229214E-001	-2.5352672E+005	-2.8140127E+001	1.000000000000000E+000	11	1.0186433E-002	2.3751083E-005	0	2.017228795872034E-002	2.3315095E-003	-2.4564755E-005	2.3316389E-003	-6.0364527E-001	-2.8140129E+004	2.6708580E+006	2.6710063E+006	-9.0603645E+001	0.0000000E+000	0.0000000E+000	0.0000000E+000	9.0603645E+001	0.0000000E+000	0.0000000E+000	0.0000000E+000	-9.0603645E+001	0.0000000E+000	0.0000000E+000	0.0000000E+000	6.0364527E-001	0.0000000E+000	0.0000000E+000	0.0000000E+000	-6.0364527E-001	9.4912788E+001	8.9396355E+001	4.368191435782289E-003
9.9904090E-002	4.2197830E+002	-6.4341111E+000	4.2202734E+002	8.7354934E-001	02/16/2024 15:41:11.0508	9.6951634E-001	7.0403653E-001	-2.4759869E+005	-5.7549858E+001	1.000000000000000E+000	11	1.0183051E-002	2.4128889E-005	0	2.625108320925071E-002	2.3692392E-003	-3.6124962E-005	2.3695147E-003	-8.7354934E-001	-5.7549930E+004	3.7743815E+006	3.7748203E+006	-9.0873550E+001	0.0000000E+000	0.0000000E+000	0.0000000E+000	9.0873550E+001	0.0000000E+000	0.0000000E+000	0.0000000E+000	-9.0873550E+001	0.0000000E+000	0.0000000E+000	0.0000000E+000	8.7354934E-001	0.0000000E+000	0.0000000E+000	0.0000000E+000	-8.7354934E-001	6.5584557E+001	8.9126450E+001	6.078795250530369E-003